MLII,V4,samples,seconds,annotations
-1.0,-0.685,0,0.0,
-1.0,-0.685,1,0.002777777777777778,
-1.0,-0.685,2,0.005555555555555556,
-1.0,-0.685,3,0.008333333333333333,
-1.0,-0.685,4,0.011111111111111112,
-1.0,-0.685,5,0.013888888888888888,
-1.0,-0.685,6,0.016666666666666666,
-0.985,-0.68,7,0.019444444444444445,
-0.97,-0.68,8,0.022222222222222223,
-0.97,-0.695,9,0.025,
-0.97,-0.695,10,0.027777777777777776,
-0.97,-0.695,11,0.030555555555555555,
-0.98,-0.705,12,0.03333333333333333,
-0.975,-0.705,13,0.03611111111111111,
-0.975,-0.695,14,0.03888888888888889,
-0.985,-0.69,15,0.041666666666666664,
-0.98,-0.69,16,0.044444444444444446,
-0.97,-0.67,17,0.04722222222222222,
-0.975,-0.675,18,0.05,
-0.955,-0.665,19,0.05277777777777778,
-0.945,-0.675,20,0.05555555555555555,
-0.95,-0.675,21,0.058333333333333334,
-0.965,-0.68,22,0.06111111111111111,
-0.95,-0.68,23,0.06388888888888888,
-0.955,-0.685,24,0.06666666666666667,
-0.96,-0.69,25,0.06944444444444445,
-0.96,-0.69,26,0.07222222222222222,
-0.965,-0.68,27,0.075,
-0.97,-0.67,28,0.07777777777777778,
-0.965,-0.665,29,0.08055555555555556,
-0.95,-0.66,30,0.08333333333333333,
-0.95,-0.65,31,0.08611111111111111,
-0.925,-0.655,32,0.08888888888888889,
-0.93,-0.66,33,0.09166666666666666,
-0.94,-0.66,34,0.09444444444444444,
-0.935,-0.665,35,0.09722222222222222,
-0.94,-0.665,36,0.1,
-0.95,-0.67,37,0.10277777777777777,
-0.965,-0.675,38,0.10555555555555556,
-0.96,-0.675,39,0.10833333333333334,
-0.95,-0.665,40,0.1111111111111111,
-0.955,-0.66,41,0.11388888888888889,
-0.94,-0.655,42,0.11666666666666667,
-0.945,-0.65,43,0.11944444444444445,
-0.925,-0.66,44,0.12222222222222222,
-0.925,-0.66,45,0.125,
-0.93,-0.665,46,0.12777777777777777,
-0.93,-0.68,47,0.13055555555555556,
-0.935,-0.675,48,0.13333333333333333,
-0.945,-0.675,49,0.1361111111111111,
-0.95,-0.675,50,0.1388888888888889,
-0.95,-0.675,51,0.14166666666666666,
-0.945,-0.66,52,0.14444444444444443,
-0.94,-0.66,53,0.14722222222222223,
-0.935,-0.655,54,0.15,
-0.92,-0.655,55,0.1527777777777778,
-0.92,-0.64,56,0.15555555555555556,
-0.92,-0.65,57,0.15833333333333333,
-0.915,-0.645,58,0.16111111111111112,
-0.915,-0.655,59,0.1638888888888889,
-0.92,-0.66,60,0.16666666666666666,
-0.92,-0.69,61,0.16944444444444445,
-0.93,-0.675,62,0.17222222222222222,
-0.93,-0.675,63,0.175,
-0.95,-0.665,64,0.17777777777777778,
-0.955,-0.66,65,0.18055555555555555,
-0.93,-0.65,66,0.18333333333333332,
-0.915,-0.645,67,0.18611111111111112,
-0.905,-0.64,68,0.18888888888888888,
-0.9,-0.65,69,0.19166666666666668,
-0.91,-0.655,70,0.19444444444444445,
-0.92,-0.655,71,0.19722222222222222,
-0.925,-0.66,72,0.2,
-0.925,-0.68,73,0.20277777777777778,
-0.925,-0.69,74,0.20555555555555555,
-0.92,-0.68,75,0.20833333333333334,
-0.93,-0.685,76,0.2111111111111111,
-0.935,-0.67,77,0.21388888888888888,
-0.92,-0.655,78,0.21666666666666667,
-0.905,-0.635,79,0.21944444444444444,
-0.905,-0.64,80,0.2222222222222222,
-0.895,-0.64,81,0.225,
-0.9,-0.655,82,0.22777777777777777,
-0.905,-0.675,83,0.23055555555555557,
-0.915,-0.69,84,0.23333333333333334,
-0.92,-0.7,85,0.2361111111111111,
-0.91,-0.68,86,0.2388888888888889,
-0.92,-0.675,87,0.24166666666666667,
-0.925,-0.675,88,0.24444444444444444,
-0.91,-0.655,89,0.24722222222222223,
-0.915,-0.65,90,0.25,
-0.9,-0.645,91,0.25277777777777777,
-0.895,-0.635,92,0.25555555555555554,
-0.9,-0.65,93,0.25833333333333336,
-0.9,-0.66,94,0.2611111111111111,
-0.905,-0.67,95,0.2638888888888889,
-0.91,-0.675,96,0.26666666666666666,
-0.91,-0.68,97,0.26944444444444443,
-0.92,-0.675,98,0.2722222222222222,
-0.92,-0.655,99,0.275,
-0.92,-0.66,100,0.2777777777777778,+
-0.92,-0.655,101,0.28055555555555556,
-0.91,-0.645,102,0.2833333333333333,
-0.92,-0.655,103,0.2861111111111111,
-0.9,-0.64,104,0.28888888888888886,
-0.895,-0.66,105,0.2916666666666667,
-0.9,-0.665,106,0.29444444444444445,
-0.905,-0.67,107,0.2972222222222222,
-0.915,-0.68,108,0.3,
-0.91,-0.67,109,0.30277777777777776,
-0.92,-0.68,110,0.3055555555555556,
-0.925,-0.675,111,0.30833333333333335,
-0.935,-0.67,112,0.3111111111111111,
-0.91,-0.655,113,0.3138888888888889,
-0.905,-0.66,114,0.31666666666666665,
-0.905,-0.655,115,0.3194444444444444,
-0.895,-0.655,116,0.32222222222222224,
-0.895,-0.66,117,0.325,
-0.895,-0.675,118,0.3277777777777778,
-0.9,-0.67,119,0.33055555555555555,
-0.91,-0.675,120,0.3333333333333333,
-0.905,-0.685,121,0.33611111111111114,
-0.915,-0.675,122,0.3388888888888889,
-0.92,-0.68,123,0.3416666666666667,
-0.915,-0.685,124,0.34444444444444444,
-0.91,-0.67,125,0.3472222222222222,
-0.92,-0.665,126,0.35,
-0.9,-0.66,127,0.3527777777777778,
-0.89,-0.66,128,0.35555555555555557,
-0.895,-0.665,129,0.35833333333333334,
-0.895,-0.655,130,0.3611111111111111,
-0.895,-0.665,131,0.3638888888888889,
-0.905,-0.665,132,0.36666666666666664,
-0.91,-0.68,133,0.36944444444444446,
-0.915,-0.685,134,0.37222222222222223,
-0.91,-0.68,135,0.375,
-0.915,-0.68,136,0.37777777777777777,
-0.92,-0.66,137,0.38055555555555554,
-0.9,-0.655,138,0.38333333333333336,
-0.9,-0.65,139,0.3861111111111111,
-0.895,-0.65,140,0.3888888888888889,
-0.885,-0.665,141,0.39166666666666666,
-0.895,-0.66,142,0.39444444444444443,
-0.9,-0.675,143,0.3972222222222222,
-0.9,-0.68,144,0.4,
-0.905,-0.68,145,0.4027777777777778,
-0.915,-0.69,146,0.40555555555555556,
-0.92,-0.68,147,0.4083333333333333,
-0.92,-0.67,148,0.4111111111111111,
-0.91,-0.67,149,0.41388888888888886,
-0.905,-0.66,150,0.4166666666666667,
-0.9,-0.655,151,0.41944444444444445,
-0.895,-0.655,152,0.4222222222222222,
-0.885,-0.645,153,0.425,
-0.89,-0.66,154,0.42777777777777776,
-0.885,-0.67,155,0.4305555555555556,
-0.885,-0.685,156,0.43333333333333335,
-0.89,-0.68,157,0.4361111111111111,
-0.9,-0.68,158,0.4388888888888889,
-0.89,-0.675,159,0.44166666666666665,
-0.895,-0.69,160,0.4444444444444444,
-0.885,-0.675,161,0.44722222222222224,
-0.87,-0.67,162,0.45,
-0.88,-0.67,163,0.4527777777777778,
-0.865,-0.65,164,0.45555555555555555,
-0.87,-0.67,165,0.4583333333333333,
-0.87,-0.66,166,0.46111111111111114,
-0.87,-0.68,167,0.4638888888888889,
-0.865,-0.685,168,0.4666666666666667,
-0.86,-0.685,169,0.46944444444444444,
-0.85,-0.685,170,0.4722222222222222,
-0.85,-0.675,171,0.475,
-0.835,-0.68,172,0.4777777777777778,
-0.82,-0.665,173,0.48055555555555557,
-0.82,-0.66,174,0.48333333333333334,
-0.81,-0.645,175,0.4861111111111111,
-0.81,-0.64,176,0.4888888888888889,
-0.815,-0.65,177,0.49166666666666664,
-0.83,-0.64,178,0.49444444444444446,
-0.835,-0.665,179,0.49722222222222223,
-0.85,-0.665,180,0.5,
-0.865,-0.665,181,0.5027777777777778,
-0.865,-0.655,182,0.5055555555555555,
-0.87,-0.655,183,0.5083333333333333,
-0.87,-0.65,184,0.5111111111111111,
-0.865,-0.64,185,0.5138888888888888,
-0.87,-0.635,186,0.5166666666666667,
-0.86,-0.64,187,0.5194444444444445,
-0.845,-0.62,188,0.5222222222222223,
-0.83,-0.605,189,0.525,
-0.82,-0.605,190,0.5277777777777778,
-0.815,-0.615,191,0.5305555555555556,
-0.815,-0.605,192,0.5333333333333333,
-0.82,-0.615,193,0.5361111111111111,
-0.825,-0.62,194,0.5388888888888889,
-0.84,-0.63,195,0.5416666666666666,
-0.845,-0.64,196,0.5444444444444444,
-0.855,-0.64,197,0.5472222222222223,
-0.875,-0.63,198,0.55,
-0.88,-0.625,199,0.5527777777777778,
-0.88,-0.635,200,0.5555555555555556,
-0.895,-0.645,201,0.5583333333333333,
-0.91,-0.67,202,0.5611111111111111,
-0.92,-0.675,203,0.5638888888888889,
-0.93,-0.685,204,0.5666666666666667,
-0.935,-0.69,205,0.5694444444444444,
-0.925,-0.69,206,0.5722222222222222,
-0.925,-0.695,207,0.575,
-0.93,-0.68,208,0.5777777777777777,
-0.92,-0.665,209,0.5805555555555556,
-0.91,-0.67,210,0.5833333333333334,
-0.91,-0.665,211,0.5861111111111111,
-0.905,-0.68,212,0.5888888888888889,
-0.91,-0.69,213,0.5916666666666667,
-0.935,-0.735,214,0.5944444444444444,
-0.935,-0.75,215,0.5972222222222222,
-0.935,-0.745,216,0.6,
-0.915,-0.69,217,0.6027777777777777,
-0.85,-0.615,218,0.6055555555555555,
-0.75,-0.48,219,0.6083333333333333,
-0.655,-0.36,220,0.6111111111111112,
-0.57,-0.27,221,0.6138888888888889,
-0.5,-0.245,222,0.6166666666666667,
-0.465,-0.26,223,0.6194444444444445,
-0.445,-0.345,224,0.6222222222222222,
-0.495,-0.515,225,0.625,
-0.61,-0.78,226,0.6277777777777778,
-0.75,-1.065,227,0.6305555555555555,
-0.92,-1.33,228,0.6333333333333333,
-1.015,-1.495,229,0.6361111111111111,
-1.015,-1.535,230,0.6388888888888888,
-0.91,-1.455,231,0.6416666666666667,
-0.72,-1.3,232,0.6444444444444445,
-0.475,-1.105,233,0.6472222222222223,
-0.21,-0.92,234,0.65,
0.035,-0.765,235,0.6527777777777778,
0.26,-0.635,236,0.6555555555555556,
0.49,-0.545,237,0.6583333333333333,
0.69,-0.49,238,0.6611111111111111,
0.88,-0.475,239,0.6638888888888889,
1.025,-0.465,240,0.6666666666666666,
1.13,-0.46,241,0.6694444444444444,
1.19,-0.475,242,0.6722222222222223,
1.195,-0.515,243,0.675,R
1.165,-0.58,244,0.6777777777777778,
1.085,-0.635,245,0.6805555555555556,
0.97,-0.67,246,0.6833333333333333,
0.815,-0.69,247,0.6861111111111111,
0.635,-0.685,248,0.6888888888888889,
0.425,-0.67,249,0.6916666666666667,
0.215,-0.66,250,0.6944444444444444,
0.0,-0.64,251,0.6972222222222222,
-0.215,-0.61,252,0.7,
-0.43,-0.625,253,0.7027777777777777,
-0.645,-0.645,254,0.7055555555555556,
-0.835,-0.69,255,0.7083333333333334,
-0.98,-0.73,256,0.7111111111111111,
-1.07,-0.75,257,0.7138888888888889,
-1.125,-0.76,258,0.7166666666666667,
-1.14,-0.75,259,0.7194444444444444,
-1.13,-0.71,260,0.7222222222222222,
-1.12,-0.69,261,0.725,
-1.095,-0.665,262,0.7277777777777777,
-1.08,-0.65,263,0.7305555555555555,
-1.085,-0.64,264,0.7333333333333333,
-1.07,-0.625,265,0.7361111111111112,
-1.07,-0.615,266,0.7388888888888889,
-1.06,-0.585,267,0.7416666666666667,
-1.045,-0.575,268,0.7444444444444445,
-1.035,-0.555,269,0.7472222222222222,
-1.02,-0.54,270,0.75,
-1.015,-0.54,271,0.7527777777777778,
-1.0,-0.535,272,0.7555555555555555,
-1.0,-0.545,273,0.7583333333333333,
-1.005,-0.555,274,0.7611111111111111,
-1.02,-0.555,275,0.7638888888888888,
-1.025,-0.565,276,0.7666666666666667,
-1.04,-0.565,277,0.7694444444444445,
-1.04,-0.545,278,0.7722222222222223,
-1.05,-0.54,279,0.775,
-1.045,-0.53,280,0.7777777777777778,
-1.04,-0.515,281,0.7805555555555556,
-1.03,-0.51,282,0.7833333333333333,
-1.025,-0.52,283,0.7861111111111111,
-1.015,-0.51,284,0.7888888888888889,
-1.01,-0.525,285,0.7916666666666666,
-1.025,-0.52,286,0.7944444444444444,
-1.025,-0.52,287,0.7972222222222223,
-1.035,-0.52,288,0.8,
-1.045,-0.525,289,0.8027777777777778,
-1.04,-0.525,290,0.8055555555555556,
-1.045,-0.535,291,0.8083333333333333,
-1.04,-0.52,292,0.8111111111111111,
-1.04,-0.515,293,0.8138888888888889,
-1.025,-0.51,294,0.8166666666666667,
-1.02,-0.505,295,0.8194444444444444,
-1.015,-0.495,296,0.8222222222222222,
-1.02,-0.51,297,0.825,
-1.02,-0.5,298,0.8277777777777777,
-1.035,-0.51,299,0.8305555555555556,
-1.045,-0.52,300,0.8333333333333334,
-1.05,-0.54,301,0.8361111111111111,
-1.06,-0.545,302,0.8388888888888889,
-1.06,-0.535,303,0.8416666666666667,
-1.06,-0.54,304,0.8444444444444444,
-1.055,-0.52,305,0.8472222222222222,
-1.06,-0.515,306,0.85,
-1.045,-0.515,307,0.8527777777777777,
-1.05,-0.505,308,0.8555555555555555,
-1.055,-0.515,309,0.8583333333333333,
-1.055,-0.525,310,0.8611111111111112,
-1.07,-0.535,311,0.8638888888888889,
-1.075,-0.545,312,0.8666666666666667,
-1.075,-0.56,313,0.8694444444444445,
-1.08,-0.55,314,0.8722222222222222,
-1.09,-0.555,315,0.875,
-1.09,-0.545,316,0.8777777777777778,
-1.085,-0.54,317,0.8805555555555555,
-1.09,-0.54,318,0.8833333333333333,
-1.08,-0.53,319,0.8861111111111111,
-1.085,-0.535,320,0.8888888888888888,
-1.08,-0.545,321,0.8916666666666667,
-1.085,-0.565,322,0.8944444444444445,
-1.09,-0.575,323,0.8972222222222223,
-1.11,-0.58,324,0.9,
-1.125,-0.595,325,0.9027777777777778,
-1.125,-0.595,326,0.9055555555555556,
-1.135,-0.61,327,0.9083333333333333,
-1.15,-0.615,328,0.9111111111111111,
-1.15,-0.61,329,0.9138888888888889,
-1.14,-0.605,330,0.9166666666666666,
-1.14,-0.605,331,0.9194444444444444,
-1.135,-0.605,332,0.9222222222222223,
-1.155,-0.625,333,0.925,
-1.17,-0.65,334,0.9277777777777778,
-1.175,-0.66,335,0.9305555555555556,
-1.195,-0.695,336,0.9333333333333333,
-1.19,-0.7,337,0.9361111111111111,
-1.185,-0.725,338,0.9388888888888889,
-1.2,-0.72,339,0.9416666666666667,
-1.2,-0.705,340,0.9444444444444444,
-1.195,-0.715,341,0.9472222222222222,
-1.2,-0.71,342,0.95,
-1.21,-0.705,343,0.9527777777777777,
-1.195,-0.725,344,0.9555555555555556,
-1.205,-0.73,345,0.9583333333333334,
-1.195,-0.745,346,0.9611111111111111,
-1.205,-0.765,347,0.9638888888888889,
-1.21,-0.78,348,0.9666666666666667,
-1.21,-0.81,349,0.9694444444444444,
-1.22,-0.81,350,0.9722222222222222,
-1.21,-0.815,351,0.975,
-1.21,-0.815,352,0.9777777777777777,
-1.205,-0.805,353,0.9805555555555555,
-1.18,-0.82,354,0.9833333333333333,
-1.18,-0.82,355,0.9861111111111112,
-1.165,-0.825,356,0.9888888888888889,
-1.16,-0.83,357,0.9916666666666667,
-1.16,-0.84,358,0.9944444444444445,
-1.155,-0.845,359,0.9972222222222222,
-1.145,-0.855,360,1.0,
-1.14,-0.855,361,1.0027777777777778,
-1.12,-0.855,362,1.0055555555555555,
-1.115,-0.85,363,1.0083333333333333,
-1.105,-0.855,364,1.011111111111111,
-1.09,-0.835,365,1.0138888888888888,
-1.07,-0.835,366,1.0166666666666666,
-1.05,-0.825,367,1.0194444444444444,
-1.02,-0.825,368,1.0222222222222221,
-1.005,-0.845,369,1.025,
-0.995,-0.835,370,1.0277777777777777,
-0.97,-0.83,371,1.0305555555555554,
-0.965,-0.825,372,1.0333333333333334,
-0.95,-0.84,373,1.0361111111111112,
-0.935,-0.825,374,1.038888888888889,
-0.935,-0.83,375,1.0416666666666667,
-0.92,-0.815,376,1.0444444444444445,
-0.9,-0.805,377,1.0472222222222223,
-0.885,-0.805,378,1.05,
-0.85,-0.78,379,1.0527777777777778,
-0.845,-0.775,380,1.0555555555555556,
-0.84,-0.775,381,1.0583333333333333,
-0.845,-0.79,382,1.0611111111111111,
-0.825,-0.795,383,1.0638888888888889,
-0.835,-0.785,384,1.0666666666666667,
-0.835,-0.785,385,1.0694444444444444,
-0.83,-0.775,386,1.0722222222222222,
-0.83,-0.775,387,1.075,
-0.82,-0.785,388,1.0777777777777777,
-0.82,-0.745,389,1.0805555555555555,
-0.82,-0.75,390,1.0833333333333333,
-0.81,-0.735,391,1.086111111111111,
-0.81,-0.735,392,1.0888888888888888,
-0.815,-0.74,393,1.0916666666666666,
-0.825,-0.75,394,1.0944444444444446,
-0.845,-0.745,395,1.0972222222222223,
-0.86,-0.765,396,1.1,
-0.875,-0.76,397,1.1027777777777779,
-0.885,-0.76,398,1.1055555555555556,
-0.9,-0.755,399,1.1083333333333334,
-0.905,-0.75,400,1.1111111111111112,
-0.905,-0.735,401,1.113888888888889,
-0.905,-0.735,402,1.1166666666666667,
-0.915,-0.715,403,1.1194444444444445,
-0.9,-0.715,404,1.1222222222222222,
-0.92,-0.73,405,1.125,
-0.925,-0.74,406,1.1277777777777778,
-0.94,-0.755,407,1.1305555555555555,
-0.94,-0.755,408,1.1333333333333333,
-0.965,-0.76,409,1.136111111111111,
-0.96,-0.76,410,1.1388888888888888,
-0.97,-0.755,411,1.1416666666666666,
-0.97,-0.76,412,1.1444444444444444,
-0.97,-0.745,413,1.1472222222222221,
-0.96,-0.745,414,1.15,
-0.96,-0.72,415,1.1527777777777777,
-0.96,-0.72,416,1.1555555555555554,
-0.97,-0.725,417,1.1583333333333334,
-0.97,-0.73,418,1.1611111111111112,
-0.96,-0.735,419,1.163888888888889,
-0.975,-0.745,420,1.1666666666666667,
-0.98,-0.76,421,1.1694444444444445,
-0.975,-0.765,422,1.1722222222222223,
-0.99,-0.755,423,1.175,
-0.98,-0.75,424,1.1777777777777778,
-0.97,-0.71,425,1.1805555555555556,
-0.965,-0.69,426,1.1833333333333333,
-0.955,-0.685,427,1.1861111111111111,
-0.95,-0.69,428,1.1888888888888889,
-0.95,-0.695,429,1.1916666666666667,
-0.955,-0.7,430,1.1944444444444444,
-0.955,-0.7,431,1.1972222222222222,
-0.945,-0.715,432,1.2,
-0.94,-0.72,433,1.2027777777777777,
-0.955,-0.725,434,1.2055555555555555,
-0.95,-0.7,435,1.2083333333333333,
-0.935,-0.7,436,1.211111111111111,
-0.935,-0.69,437,1.2138888888888888,
-0.93,-0.68,438,1.2166666666666666,
-0.925,-0.69,439,1.2194444444444446,
-0.915,-0.69,440,1.2222222222222223,
-0.915,-0.685,441,1.225,
-0.92,-0.695,442,1.2277777777777779,
-0.91,-0.69,443,1.2305555555555556,
-0.925,-0.695,444,1.2333333333333334,
-0.925,-0.695,445,1.2361111111111112,
-0.93,-0.685,446,1.238888888888889,
-0.93,-0.68,447,1.2416666666666667,
-0.93,-0.685,448,1.2444444444444445,
-0.92,-0.675,449,1.2472222222222222,
-0.925,-0.67,450,1.25,
-0.905,-0.665,451,1.2527777777777778,
-0.91,-0.66,452,1.2555555555555555,
-0.905,-0.665,453,1.2583333333333333,
-0.9,-0.66,454,1.261111111111111,
-0.895,-0.665,455,1.2638888888888888,
-0.91,-0.675,456,1.2666666666666666,
-0.91,-0.675,457,1.2694444444444444,
-0.905,-0.68,458,1.2722222222222221,
-0.91,-0.675,459,1.275,
-0.91,-0.67,460,1.2777777777777777,
-0.905,-0.665,461,1.2805555555555554,
-0.895,-0.66,462,1.2833333333333334,
-0.89,-0.645,463,1.2861111111111112,
-0.875,-0.64,464,1.288888888888889,
-0.885,-0.655,465,1.2916666666666667,
-0.885,-0.65,466,1.2944444444444445,
-0.895,-0.65,467,1.2972222222222223,
-0.89,-0.665,468,1.3,
-0.905,-0.675,469,1.3027777777777778,
-0.9,-0.67,470,1.3055555555555556,
-0.905,-0.67,471,1.3083333333333333,
-0.895,-0.67,472,1.3111111111111111,
-0.895,-0.665,473,1.3138888888888889,
-0.89,-0.65,474,1.3166666666666667,
-0.89,-0.64,475,1.3194444444444444,
-0.875,-0.635,476,1.3222222222222222,
-0.87,-0.64,477,1.325,
-0.88,-0.645,478,1.3277777777777777,
-0.88,-0.65,479,1.3305555555555555,
-0.88,-0.665,480,1.3333333333333333,
-0.895,-0.665,481,1.336111111111111,
-0.9,-0.675,482,1.3388888888888888,
-0.9,-0.67,483,1.3416666666666666,
-0.9,-0.665,484,1.3444444444444446,
-0.895,-0.66,485,1.3472222222222223,
-0.885,-0.65,486,1.35,
-0.875,-0.65,487,1.3527777777777779,
-0.86,-0.655,488,1.3555555555555556,
-0.86,-0.645,489,1.3583333333333334,
-0.86,-0.645,490,1.3611111111111112,
-0.865,-0.665,491,1.363888888888889,
-0.87,-0.66,492,1.3666666666666667,
-0.865,-0.65,493,1.3694444444444445,
-0.88,-0.65,494,1.3722222222222222,
-0.87,-0.655,495,1.375,
-0.875,-0.65,496,1.3777777777777778,
-0.865,-0.64,497,1.3805555555555555,
-0.86,-0.645,498,1.3833333333333333,
-0.86,-0.63,499,1.386111111111111,
-0.855,-0.64,500,1.3888888888888888,
-0.855,-0.635,501,1.3916666666666666,
-0.855,-0.645,502,1.3944444444444444,
-0.865,-0.67,503,1.3972222222222221,
-0.865,-0.67,504,1.4,
-0.865,-0.675,505,1.4027777777777777,
-0.88,-0.675,506,1.4055555555555554,
-0.87,-0.675,507,1.4083333333333334,
-0.865,-0.655,508,1.4111111111111112,
-0.87,-0.655,509,1.413888888888889,
-0.86,-0.65,510,1.4166666666666667,
-0.865,-0.64,511,1.4194444444444445,
-0.845,-0.645,512,1.4222222222222223,
-0.845,-0.665,513,1.425,
-0.845,-0.655,514,1.4277777777777778,
-0.845,-0.665,515,1.4305555555555556,
-0.86,-0.67,516,1.4333333333333333,
-0.86,-0.67,517,1.4361111111111111,
-0.865,-0.665,518,1.4388888888888889,
-0.875,-0.675,519,1.4416666666666667,
-0.875,-0.66,520,1.4444444444444444,
-0.865,-0.655,521,1.4472222222222222,
-0.865,-0.645,522,1.45,
-0.86,-0.64,523,1.4527777777777777,
-0.86,-0.635,524,1.4555555555555555,
-0.845,-0.65,525,1.4583333333333333,
-0.84,-0.645,526,1.461111111111111,
-0.85,-0.65,527,1.4638888888888888,
-0.86,-0.665,528,1.4666666666666666,
-0.86,-0.675,529,1.4694444444444446,
-0.875,-0.67,530,1.4722222222222223,
-0.86,-0.675,531,1.475,
-0.86,-0.665,532,1.4777777777777779,
-0.86,-0.65,533,1.4805555555555556,
-0.86,-0.655,534,1.4833333333333334,
-0.845,-0.655,535,1.4861111111111112,
-0.84,-0.655,536,1.488888888888889,
-0.84,-0.645,537,1.4916666666666667,
-0.85,-0.67,538,1.4944444444444445,
-0.845,-0.66,539,1.4972222222222222,
-0.865,-0.665,540,1.5,
-0.86,-0.67,541,1.5027777777777778,
-0.87,-0.675,542,1.5055555555555555,
-0.875,-0.68,543,1.5083333333333333,
-0.88,-0.685,544,1.511111111111111,
-0.885,-0.67,545,1.5138888888888888,
-0.86,-0.665,546,1.5166666666666666,
-0.855,-0.66,547,1.5194444444444444,
-0.845,-0.66,548,1.5222222222222221,
-0.835,-0.655,549,1.525,
-0.845,-0.66,550,1.5277777777777777,
-0.855,-0.66,551,1.5305555555555554,
-0.86,-0.66,552,1.5333333333333334,
-0.865,-0.67,553,1.5361111111111112,
-0.865,-0.68,554,1.538888888888889,
-0.87,-0.67,555,1.5416666666666667,
-0.86,-0.675,556,1.5444444444444445,
-0.865,-0.665,557,1.5472222222222223,
-0.845,-0.665,558,1.55,
-0.855,-0.655,559,1.5527777777777778,
-0.835,-0.645,560,1.5555555555555556,
-0.85,-0.655,561,1.5583333333333333,
-0.86,-0.66,562,1.5611111111111111,
-0.84,-0.655,563,1.5638888888888889,
-0.855,-0.665,564,1.5666666666666667,
-0.855,-0.675,565,1.5694444444444444,
-0.86,-0.675,566,1.5722222222222222,
-0.855,-0.675,567,1.575,
-0.86,-0.68,568,1.5777777777777777,
-0.855,-0.68,569,1.5805555555555555,
-0.845,-0.67,570,1.5833333333333333,
-0.84,-0.665,571,1.586111111111111,
-0.84,-0.65,572,1.5888888888888888,
-0.835,-0.65,573,1.5916666666666666,
-0.845,-0.65,574,1.5944444444444446,
-0.845,-0.675,575,1.5972222222222223,
-0.84,-0.68,576,1.6,
-0.86,-0.69,577,1.6027777777777779,
-0.855,-0.7,578,1.6055555555555556,
-0.855,-0.7,579,1.6083333333333334,
-0.86,-0.68,580,1.6111111111111112,
-0.86,-0.69,581,1.613888888888889,
-0.855,-0.68,582,1.6166666666666667,
-0.86,-0.66,583,1.6194444444444445,
-0.85,-0.66,584,1.6222222222222222,
-0.845,-0.665,585,1.625,
-0.84,-0.665,586,1.6277777777777778,
-0.86,-0.685,587,1.6305555555555555,
-0.86,-0.685,588,1.6333333333333333,
-0.87,-0.69,589,1.636111111111111,
-0.88,-0.68,590,1.6388888888888888,
-0.855,-0.695,591,1.6416666666666666,
-0.865,-0.685,592,1.6444444444444444,
-0.85,-0.685,593,1.6472222222222221,
-0.85,-0.685,594,1.65,
-0.845,-0.675,595,1.6527777777777777,
-0.84,-0.665,596,1.6555555555555554,
-0.835,-0.665,597,1.6583333333333334,
-0.835,-0.675,598,1.6611111111111112,
-0.835,-0.68,599,1.663888888888889,
-0.855,-0.69,600,1.6666666666666667,
-0.85,-0.69,601,1.6694444444444445,
-0.855,-0.695,602,1.6722222222222223,
-0.855,-0.68,603,1.675,
-0.845,-0.68,604,1.6777777777777778,
-0.85,-0.665,605,1.6805555555555556,
-0.835,-0.655,606,1.6833333333333333,
-0.84,-0.655,607,1.6861111111111111,
-0.83,-0.665,608,1.6888888888888889,
-0.835,-0.665,609,1.6916666666666667,
-0.825,-0.67,610,1.6944444444444444,
-0.82,-0.685,611,1.6972222222222222,
-0.825,-0.685,612,1.7,
-0.835,-0.695,613,1.7027777777777777,
-0.835,-0.7,614,1.7055555555555555,
-0.83,-0.695,615,1.7083333333333333,
-0.825,-0.69,616,1.711111111111111,
-0.82,-0.675,617,1.7138888888888888,
-0.83,-0.67,618,1.7166666666666666,
-0.825,-0.665,619,1.7194444444444446,
-0.82,-0.65,620,1.7222222222222223,
-0.805,-0.66,621,1.725,
-0.795,-0.645,622,1.7277777777777779,
-0.795,-0.66,623,1.7305555555555556,
-0.79,-0.67,624,1.7333333333333334,
-0.79,-0.675,625,1.7361111111111112,
-0.795,-0.67,626,1.738888888888889,
-0.79,-0.67,627,1.7416666666666667,
-0.78,-0.67,628,1.7444444444444445,
-0.78,-0.66,629,1.7472222222222222,
-0.785,-0.655,630,1.75,
-0.79,-0.655,631,1.7527777777777778,
-0.79,-0.65,632,1.7555555555555555,
-0.8,-0.655,633,1.7583333333333333,
-0.805,-0.65,634,1.761111111111111,
-0.82,-0.645,635,1.7638888888888888,
-0.82,-0.665,636,1.7666666666666666,
-0.815,-0.67,637,1.7694444444444444,
-0.82,-0.67,638,1.7722222222222221,
-0.815,-0.665,639,1.775,
-0.795,-0.655,640,1.7777777777777777,
-0.775,-0.625,641,1.7805555555555554,
-0.77,-0.615,642,1.7833333333333334,
-0.755,-0.625,643,1.7861111111111112,
-0.75,-0.615,644,1.788888888888889,
-0.755,-0.62,645,1.7916666666666667,
-0.775,-0.635,646,1.7944444444444445,
-0.785,-0.64,647,1.7972222222222223,
-0.785,-0.665,648,1.8,
-0.815,-0.68,649,1.8027777777777778,
-0.845,-0.7,650,1.8055555555555556,
-0.855,-0.7,651,1.8083333333333333,
-0.87,-0.705,652,1.8111111111111111,
-0.865,-0.71,653,1.8138888888888889,
-0.86,-0.7,654,1.8166666666666667,
-0.865,-0.68,655,1.8194444444444444,
-0.85,-0.68,656,1.8222222222222222,
-0.845,-0.685,657,1.825,
-0.85,-0.69,658,1.8277777777777777,
-0.845,-0.71,659,1.8305555555555555,
-0.86,-0.715,660,1.8333333333333333,
-0.86,-0.73,661,1.836111111111111,
-0.865,-0.73,662,1.8388888888888888,
-0.865,-0.73,663,1.8416666666666666,
-0.865,-0.745,664,1.8444444444444446,
-0.875,-0.77,665,1.8472222222222223,
-0.875,-0.77,666,1.85,
-0.875,-0.755,667,1.8527777777777779,
-0.84,-0.72,668,1.8555555555555556,
-0.8,-0.655,669,1.8583333333333334,
-0.725,-0.54,670,1.8611111111111112,
-0.64,-0.43,671,1.863888888888889,
-0.565,-0.35,672,1.8666666666666667,
-0.495,-0.32,673,1.8694444444444445,
-0.46,-0.36,674,1.8722222222222222,
-0.475,-0.465,675,1.875,
-0.51,-0.65,676,1.8777777777777778,
-0.61,-0.9,677,1.8805555555555555,
-0.74,-1.19,678,1.8833333333333333,
-0.85,-1.385,679,1.886111111111111,
-0.905,-1.495,680,1.8888888888888888,
-0.845,-1.465,681,1.8916666666666666,
-0.69,-1.3,682,1.8944444444444444,
-0.455,-1.1,683,1.8972222222222221,
-0.205,-0.875,684,1.9,
0.075,-0.695,685,1.9027777777777777,
0.345,-0.53,686,1.9055555555555554,
0.595,-0.425,687,1.9083333333333334,
0.84,-0.345,688,1.9111111111111112,
1.055,-0.31,689,1.913888888888889,
1.23,-0.3,690,1.9166666666666667,
1.345,-0.33,691,1.9194444444444445,
1.4,-0.39,692,1.9222222222222223,
1.39,-0.485,693,1.925,R
1.295,-0.595,694,1.9277777777777778,
1.18,-0.66,695,1.9305555555555556,
1.015,-0.7,696,1.9333333333333333,
0.805,-0.71,697,1.9361111111111111,
0.565,-0.715,698,1.9388888888888889,
0.335,-0.69,699,1.9416666666666667,
0.11,-0.66,700,1.9444444444444444,
-0.125,-0.62,701,1.9472222222222222,
-0.345,-0.61,702,1.95,
-0.58,-0.63,703,1.9527777777777777,
-0.775,-0.67,704,1.9555555555555555,
-0.93,-0.735,705,1.9583333333333333,
-1.045,-0.78,706,1.961111111111111,
-1.11,-0.815,707,1.9638888888888888,
-1.145,-0.81,708,1.9666666666666666,
-1.135,-0.78,709,1.9694444444444446,
-1.12,-0.74,710,1.9722222222222223,
-1.1,-0.7,711,1.975,
-1.075,-0.66,712,1.9777777777777779,
-1.05,-0.625,713,1.9805555555555556,
-1.02,-0.59,714,1.9833333333333334,
-1.02,-0.58,715,1.9861111111111112,
-0.99,-0.56,716,1.988888888888889,
-0.965,-0.55,717,1.9916666666666667,
-0.97,-0.555,718,1.9944444444444445,
-0.98,-0.56,719,1.9972222222222222,
-0.98,-0.57,720,2.0,
-0.995,-0.58,721,2.0027777777777778,
-1.01,-0.585,722,2.0055555555555555,
-1.015,-0.57,723,2.0083333333333333,
-1.005,-0.555,724,2.011111111111111,
-0.995,-0.54,725,2.013888888888889,
-0.98,-0.535,726,2.0166666666666666,
-0.98,-0.53,727,2.0194444444444444,
-0.975,-0.53,728,2.022222222222222,
-0.98,-0.53,729,2.025,
-0.98,-0.545,730,2.0277777777777777,
-0.99,-0.545,731,2.0305555555555554,
-0.995,-0.55,732,2.033333333333333,
-1.005,-0.545,733,2.036111111111111,
-1.005,-0.545,734,2.0388888888888888,
-1.015,-0.54,735,2.0416666666666665,
-1.01,-0.555,736,2.0444444444444443,
-1.0,-0.525,737,2.047222222222222,
-0.995,-0.53,738,2.05,
-0.985,-0.515,739,2.0527777777777776,
-0.98,-0.51,740,2.0555555555555554,
-0.98,-0.515,741,2.058333333333333,
-0.98,-0.515,742,2.061111111111111,
-0.995,-0.53,743,2.063888888888889,
-1.005,-0.535,744,2.066666666666667,
-1.01,-0.545,745,2.0694444444444446,
-1.035,-0.55,746,2.0722222222222224,
-1.03,-0.55,747,2.075,
-1.03,-0.55,748,2.077777777777778,
-1.025,-0.545,749,2.0805555555555557,
-1.015,-0.525,750,2.0833333333333335,
-1.005,-0.525,751,2.0861111111111112,
-1.0,-0.52,752,2.088888888888889,
-1.0,-0.51,753,2.091666666666667,
-1.005,-0.535,754,2.0944444444444446,
-1.025,-0.545,755,2.0972222222222223,
-1.045,-0.55,756,2.1,
-1.055,-0.56,757,2.102777777777778,
-1.055,-0.57,758,2.1055555555555556,
-1.065,-0.57,759,2.1083333333333334,
-1.075,-0.565,760,2.111111111111111,
-1.08,-0.565,761,2.113888888888889,
-1.065,-0.56,762,2.1166666666666667,
-1.075,-0.56,763,2.1194444444444445,
-1.06,-0.565,764,2.1222222222222222,
-1.08,-0.575,765,2.125,
-1.075,-0.595,766,2.1277777777777778,
-1.08,-0.59,767,2.1305555555555555,
-1.09,-0.6,768,2.1333333333333333,
-1.105,-0.615,769,2.136111111111111,
-1.11,-0.62,770,2.138888888888889,
-1.12,-0.625,771,2.1416666666666666,
-1.13,-0.635,772,2.1444444444444444,
-1.13,-0.625,773,2.147222222222222,
-1.12,-0.645,774,2.15,
-1.12,-0.64,775,2.1527777777777777,
-1.11,-0.655,776,2.1555555555555554,
-1.12,-0.66,777,2.158333333333333,
-1.12,-0.68,778,2.161111111111111,
-1.135,-0.68,779,2.1638888888888888,
-1.135,-0.7,780,2.1666666666666665,
-1.16,-0.7,781,2.1694444444444443,
-1.16,-0.715,782,2.172222222222222,
-1.165,-0.73,783,2.175,
-1.17,-0.73,784,2.1777777777777776,
-1.165,-0.725,785,2.1805555555555554,
-1.16,-0.75,786,2.183333333333333,
-1.15,-0.75,787,2.186111111111111,
-1.135,-0.755,788,2.188888888888889,
-1.145,-0.76,789,2.191666666666667,
-1.145,-0.78,790,2.1944444444444446,
-1.14,-0.775,791,2.1972222222222224,
-1.145,-0.785,792,2.2,
-1.145,-0.795,793,2.202777777777778,
-1.14,-0.805,794,2.2055555555555557,
-1.14,-0.795,795,2.2083333333333335,
-1.11,-0.795,796,2.2111111111111112,
-1.1,-0.805,797,2.213888888888889,
-1.07,-0.8,798,2.216666666666667,
-1.06,-0.79,799,2.2194444444444446,
-1.035,-0.78,800,2.2222222222222223,
-1.015,-0.79,801,2.225,
-1.01,-0.795,802,2.227777777777778,
-1.005,-0.8,803,2.2305555555555556,
-0.99,-0.8,804,2.2333333333333334,
-0.985,-0.81,805,2.236111111111111,
-0.97,-0.815,806,2.238888888888889,
-0.955,-0.81,807,2.2416666666666667,
-0.94,-0.8,808,2.2444444444444445,
-0.925,-0.78,809,2.2472222222222222,
-0.89,-0.77,810,2.25,
-0.875,-0.75,811,2.2527777777777778,
-0.86,-0.745,812,2.2555555555555555,
-0.845,-0.75,813,2.2583333333333333,
-0.825,-0.76,814,2.261111111111111,
-0.82,-0.76,815,2.263888888888889,
-0.815,-0.775,816,2.2666666666666666,
-0.8,-0.775,817,2.2694444444444444,
-0.81,-0.77,818,2.272222222222222,
-0.805,-0.765,819,2.275,
-0.8,-0.755,820,2.2777777777777777,
-0.795,-0.74,821,2.2805555555555554,
-0.77,-0.74,822,2.283333333333333,
-0.775,-0.74,823,2.286111111111111,
-0.765,-0.74,824,2.2888888888888888,
-0.77,-0.755,825,2.2916666666666665,
-0.77,-0.745,826,2.2944444444444443,
-0.79,-0.76,827,2.297222222222222,
-0.795,-0.76,828,2.3,
-0.815,-0.76,829,2.3027777777777776,
-0.83,-0.775,830,2.3055555555555554,
-0.83,-0.77,831,2.308333333333333,
-0.85,-0.76,832,2.311111111111111,
-0.87,-0.765,833,2.313888888888889,
-0.875,-0.76,834,2.316666666666667,
-0.87,-0.76,835,2.3194444444444446,
-0.87,-0.765,836,2.3222222222222224,
-0.885,-0.78,837,2.325,
-0.9,-0.775,838,2.327777777777778,
-0.91,-0.8,839,2.3305555555555557,
-0.93,-0.815,840,2.3333333333333335,
-0.93,-0.815,841,2.3361111111111112,
-0.97,-0.805,842,2.338888888888889,
-0.985,-0.82,843,2.341666666666667,
-0.96,-0.8,844,2.3444444444444446,
-0.975,-0.8,845,2.3472222222222223,
-0.97,-0.8,846,2.35,
-0.965,-0.785,847,2.352777777777778,
-0.97,-0.79,848,2.3555555555555556,
-0.965,-0.805,849,2.3583333333333334,
-0.975,-0.8,850,2.361111111111111,
-0.975,-0.8,851,2.363888888888889,
-0.995,-0.805,852,2.3666666666666667,
-1.0,-0.81,853,2.3694444444444445,
-1.0,-0.805,854,2.3722222222222222,
-1.005,-0.81,855,2.375,
-1.005,-0.785,856,2.3777777777777778,
-1.0,-0.785,857,2.3805555555555555,
-0.995,-0.78,858,2.3833333333333333,
-0.975,-0.78,859,2.386111111111111,
-0.98,-0.77,860,2.388888888888889,
-0.975,-0.76,861,2.3916666666666666,
-0.98,-0.765,862,2.3944444444444444,
-0.97,-0.77,863,2.397222222222222,
-0.985,-0.775,864,2.4,
-0.985,-0.775,865,2.4027777777777777,
-0.98,-0.775,866,2.4055555555555554,
-0.98,-0.775,867,2.408333333333333,
-0.97,-0.76,868,2.411111111111111,
-0.955,-0.755,869,2.4138888888888888,
-0.945,-0.745,870,2.4166666666666665,
-0.93,-0.74,871,2.4194444444444443,
-0.92,-0.735,872,2.422222222222222,
-0.915,-0.73,873,2.425,
-0.925,-0.735,874,2.4277777777777776,
-0.925,-0.74,875,2.4305555555555554,
-0.93,-0.73,876,2.433333333333333,
-0.92,-0.755,877,2.436111111111111,
-0.935,-0.745,878,2.438888888888889,
-0.94,-0.755,879,2.441666666666667,
-0.93,-0.745,880,2.4444444444444446,
-0.925,-0.745,881,2.4472222222222224,
-0.91,-0.735,882,2.45,
-0.905,-0.735,883,2.452777777777778,
-0.9,-0.72,884,2.4555555555555557,
-0.9,-0.715,885,2.4583333333333335,
-0.905,-0.73,886,2.4611111111111112,
-0.905,-0.74,887,2.463888888888889,
-0.91,-0.735,888,2.466666666666667,
-0.905,-0.74,889,2.4694444444444446,
-0.91,-0.74,890,2.4722222222222223,
-0.915,-0.75,891,2.475,
-0.92,-0.74,892,2.477777777777778,
-0.9,-0.73,893,2.4805555555555556,
-0.885,-0.72,894,2.4833333333333334,
-0.88,-0.695,895,2.486111111111111,
-0.87,-0.69,896,2.488888888888889,
-0.875,-0.69,897,2.4916666666666667,
-0.87,-0.69,898,2.4944444444444445,
-0.88,-0.7,899,2.4972222222222222,
-0.89,-0.725,900,2.5,
-0.9,-0.73,901,2.5027777777777778,
-0.91,-0.74,902,2.5055555555555555,
-0.9,-0.735,903,2.5083333333333333,
-0.895,-0.735,904,2.511111111111111,
-0.88,-0.725,905,2.513888888888889,
-0.88,-0.72,906,2.5166666666666666,
-0.875,-0.71,907,2.5194444444444444,
-0.87,-0.7,908,2.522222222222222,
-0.865,-0.705,909,2.525,
-0.87,-0.71,910,2.5277777777777777,
-0.87,-0.725,911,2.5305555555555554,
-0.87,-0.715,912,2.533333333333333,
-0.88,-0.735,913,2.536111111111111,
-0.885,-0.735,914,2.5388888888888888,
-0.88,-0.735,915,2.5416666666666665,
-0.88,-0.73,916,2.5444444444444443,
-0.88,-0.73,917,2.547222222222222,
-0.87,-0.725,918,2.55,
-0.86,-0.71,919,2.5527777777777776,
-0.855,-0.71,920,2.5555555555555554,
-0.855,-0.695,921,2.558333333333333,
-0.855,-0.715,922,2.561111111111111,
-0.85,-0.715,923,2.563888888888889,
-0.865,-0.725,924,2.566666666666667,
-0.87,-0.74,925,2.5694444444444446,
-0.875,-0.735,926,2.5722222222222224,
-0.87,-0.735,927,2.575,
-0.865,-0.725,928,2.577777777777778,
-0.865,-0.7,929,2.5805555555555557,
-0.86,-0.7,930,2.5833333333333335,
-0.855,-0.685,931,2.5861111111111112,
-0.84,-0.69,932,2.588888888888889,
-0.84,-0.695,933,2.591666666666667,
-0.84,-0.7,934,2.5944444444444446,
-0.845,-0.71,935,2.5972222222222223,
-0.85,-0.725,936,2.6,
-0.865,-0.705,937,2.602777777777778,
-0.86,-0.72,938,2.6055555555555556,
-0.87,-0.72,939,2.6083333333333334,
-0.87,-0.715,940,2.611111111111111,
-0.855,-0.705,941,2.613888888888889,
-0.855,-0.69,942,2.6166666666666667,
-0.86,-0.69,943,2.6194444444444445,
-0.845,-0.695,944,2.6222222222222222,
-0.84,-0.685,945,2.625,
-0.845,-0.705,946,2.6277777777777778,
-0.835,-0.695,947,2.6305555555555555,
-0.85,-0.7,948,2.6333333333333333,
-0.855,-0.71,949,2.636111111111111,
-0.87,-0.715,950,2.638888888888889,
-0.875,-0.72,951,2.6416666666666666,
-0.875,-0.71,952,2.6444444444444444,
-0.86,-0.715,953,2.647222222222222,
-0.865,-0.7,954,2.65,
-0.85,-0.705,955,2.6527777777777777,
-0.84,-0.685,956,2.6555555555555554,
-0.84,-0.69,957,2.658333333333333,
-0.84,-0.695,958,2.661111111111111,
-0.85,-0.695,959,2.6638888888888888,
-0.84,-0.71,960,2.6666666666666665,
-0.86,-0.7,961,2.6694444444444443,
-0.865,-0.715,962,2.672222222222222,
-0.865,-0.705,963,2.675,
-0.865,-0.705,964,2.6777777777777776,
-0.85,-0.695,965,2.6805555555555554,
-0.845,-0.685,966,2.683333333333333,
-0.84,-0.675,967,2.686111111111111,
-0.825,-0.68,968,2.688888888888889,
-0.82,-0.675,969,2.691666666666667,
-0.82,-0.695,970,2.6944444444444446,
-0.825,-0.7,971,2.6972222222222224,
-0.84,-0.7,972,2.7,
-0.85,-0.705,973,2.702777777777778,
-0.845,-0.71,974,2.7055555555555557,
-0.855,-0.715,975,2.7083333333333335,
-0.865,-0.705,976,2.7111111111111112,
-0.865,-0.7,977,2.713888888888889,
-0.84,-0.69,978,2.716666666666667,
-0.84,-0.695,979,2.7194444444444446,
-0.825,-0.675,980,2.7222222222222223,
-0.82,-0.68,981,2.725,
-0.825,-0.69,982,2.727777777777778,
-0.83,-0.68,983,2.7305555555555556,
-0.83,-0.695,984,2.7333333333333334,
-0.835,-0.695,985,2.736111111111111,
-0.84,-0.7,986,2.738888888888889,
-0.845,-0.7,987,2.7416666666666667,
-0.845,-0.705,988,2.7444444444444445,
-0.85,-0.705,989,2.7472222222222222,
-0.835,-0.69,990,2.75,
-0.84,-0.695,991,2.7527777777777778,
-0.835,-0.665,992,2.7555555555555555,
-0.835,-0.68,993,2.7583333333333333,
-0.82,-0.685,994,2.761111111111111,
-0.825,-0.68,995,2.763888888888889,
-0.835,-0.695,996,2.7666666666666666,
-0.835,-0.695,997,2.7694444444444444,
-0.855,-0.7,998,2.772222222222222,
-0.845,-0.695,999,2.775,
-0.845,-0.675,1000,2.7777777777777777,
-0.84,-0.665,1001,2.7805555555555554,
-0.825,-0.68,1002,2.783333333333333,
-0.82,-0.665,1003,2.786111111111111,
-0.825,-0.66,1004,2.7888888888888888,
-0.815,-0.67,1005,2.7916666666666665,
-0.825,-0.68,1006,2.7944444444444443,
-0.825,-0.69,1007,2.797222222222222,
-0.835,-0.72,1008,2.8,
-0.84,-0.715,1009,2.8027777777777776,
-0.835,-0.71,1010,2.8055555555555554,
-0.835,-0.71,1011,2.808333333333333,
-0.835,-0.695,1012,2.811111111111111,
-0.84,-0.685,1013,2.813888888888889,
-0.835,-0.675,1014,2.816666666666667,
-0.83,-0.67,1015,2.8194444444444446,
-0.815,-0.665,1016,2.8222222222222224,
-0.81,-0.685,1017,2.825,
-0.805,-0.69,1018,2.827777777777778,
-0.815,-0.705,1019,2.8305555555555557,
-0.83,-0.72,1020,2.8333333333333335,
-0.84,-0.72,1021,2.8361111111111112,
-0.83,-0.715,1022,2.838888888888889,
-0.83,-0.71,1023,2.841666666666667,
-0.83,-0.69,1024,2.8444444444444446,
-0.82,-0.685,1025,2.8472222222222223,
-0.82,-0.685,1026,2.85,
-0.805,-0.67,1027,2.852777777777778,
-0.8,-0.685,1028,2.8555555555555556,
-0.81,-0.7,1029,2.8583333333333334,
-0.815,-0.7,1030,2.861111111111111,
-0.81,-0.7,1031,2.863888888888889,
-0.83,-0.71,1032,2.8666666666666667,
-0.825,-0.705,1033,2.8694444444444445,
-0.84,-0.71,1034,2.8722222222222222,
-0.84,-0.7,1035,2.875,
-0.835,-0.69,1036,2.8777777777777778,
-0.825,-0.68,1037,2.8805555555555555,
-0.81,-0.665,1038,2.8833333333333333,
-0.795,-0.66,1039,2.886111111111111,
-0.79,-0.66,1040,2.888888888888889,
-0.785,-0.665,1041,2.8916666666666666,
-0.8,-0.68,1042,2.8944444444444444,
-0.805,-0.705,1043,2.897222222222222,
-0.815,-0.695,1044,2.9,
-0.82,-0.7,1045,2.9027777777777777,
-0.815,-0.7,1046,2.9055555555555554,
-0.815,-0.705,1047,2.908333333333333,
-0.83,-0.7,1048,2.911111111111111,
-0.81,-0.68,1049,2.9138888888888888,
-0.79,-0.665,1050,2.9166666666666665,
-0.755,-0.655,1051,2.9194444444444443,
-0.74,-0.67,1052,2.922222222222222,
-0.73,-0.675,1053,2.925,
-0.73,-0.675,1054,2.9277777777777776,
-0.735,-0.685,1055,2.9305555555555554,
-0.735,-0.695,1056,2.933333333333333,
-0.75,-0.7,1057,2.936111111111111,
-0.75,-0.68,1058,2.938888888888889,
-0.75,-0.67,1059,2.941666666666667,
-0.77,-0.67,1060,2.9444444444444446,
-0.78,-0.66,1061,2.9472222222222224,
-0.78,-0.65,1062,2.95,
-0.77,-0.65,1063,2.952777777777778,
-0.765,-0.65,1064,2.9555555555555557,
-0.77,-0.65,1065,2.9583333333333335,
-0.77,-0.665,1066,2.9611111111111112,
-0.765,-0.66,1067,2.963888888888889,
-0.775,-0.66,1068,2.966666666666667,
-0.775,-0.645,1069,2.9694444444444446,
-0.765,-0.635,1070,2.9722222222222223,
-0.75,-0.63,1071,2.975,
-0.75,-0.625,1072,2.977777777777778,
-0.735,-0.625,1073,2.9805555555555556,
-0.735,-0.63,1074,2.9833333333333334,
-0.735,-0.635,1075,2.986111111111111,
-0.75,-0.645,1076,2.988888888888889,
-0.765,-0.655,1077,2.9916666666666667,
-0.775,-0.67,1078,2.9944444444444445,
-0.8,-0.69,1079,2.9972222222222222,
-0.825,-0.695,1080,3.0,
-0.835,-0.71,1081,3.0027777777777778,
-0.845,-0.705,1082,3.0055555555555555,
-0.84,-0.705,1083,3.0083333333333333,
-0.835,-0.695,1084,3.011111111111111,
-0.83,-0.675,1085,3.013888888888889,
-0.825,-0.67,1086,3.0166666666666666,
-0.81,-0.665,1087,3.0194444444444444,
-0.805,-0.675,1088,3.022222222222222,
-0.82,-0.685,1089,3.025,
-0.825,-0.705,1090,3.0277777777777777,
-0.83,-0.72,1091,3.0305555555555554,
-0.845,-0.765,1092,3.033333333333333,
-0.86,-0.78,1093,3.036111111111111,
-0.87,-0.76,1094,3.0388888888888888,
-0.835,-0.69,1095,3.0416666666666665,
-0.755,-0.565,1096,3.0444444444444443,
-0.66,-0.43,1097,3.047222222222222,
-0.55,-0.31,1098,3.05,
-0.46,-0.255,1099,3.0527777777777776,
-0.39,-0.265,1100,3.0555555555555554,
-0.375,-0.36,1101,3.058333333333333,
-0.41,-0.55,1102,3.061111111111111,
-0.515,-0.85,1103,3.063888888888889,
-0.685,-1.17,1104,3.066666666666667,
-0.84,-1.425,1105,3.0694444444444446,
-0.925,-1.56,1106,3.0722222222222224,
-0.915,-1.54,1107,3.075,
-0.755,-1.395,1108,3.077777777777778,
-0.515,-1.17,1109,3.0805555555555557,
-0.22,-0.945,1110,3.0833333333333335,
0.06,-0.755,1111,3.0861111111111112,
0.335,-0.625,1112,3.088888888888889,
0.57,-0.57,1113,3.091666666666667,
0.78,-0.555,1114,3.0944444444444446,
0.955,-0.545,1115,3.0972222222222223,
1.09,-0.55,1116,3.1,
1.16,-0.575,1117,3.102777777777778,
1.185,-0.615,1118,3.1055555555555556,
1.16,-0.655,1119,3.1083333333333334,R
1.105,-0.68,1120,3.111111111111111,
1.02,-0.685,1121,3.113888888888889,
0.91,-0.67,1122,3.1166666666666667,
0.74,-0.665,1123,3.1194444444444445,
0.555,-0.645,1124,3.1222222222222222,
0.34,-0.63,1125,3.125,
0.145,-0.62,1126,3.1277777777777778,
-0.065,-0.605,1127,3.1305555555555555,
-0.295,-0.615,1128,3.1333333333333333,
-0.515,-0.64,1129,3.136111111111111,
-0.695,-0.675,1130,3.138888888888889,
-0.875,-0.7,1131,3.1416666666666666,
-0.965,-0.725,1132,3.1444444444444444,
-1.025,-0.73,1133,3.147222222222222,
-1.045,-0.715,1134,3.15,
-1.035,-0.68,1135,3.1527777777777777,
-1.025,-0.66,1136,3.1555555555555554,
-1.0,-0.625,1137,3.158333333333333,
-0.975,-0.615,1138,3.161111111111111,
-0.97,-0.6,1139,3.1638888888888888,
-0.965,-0.58,1140,3.1666666666666665,
-0.95,-0.575,1141,3.1694444444444443,
-0.935,-0.55,1142,3.172222222222222,
-0.925,-0.535,1143,3.175,
-0.93,-0.525,1144,3.1777777777777776,
-0.92,-0.505,1145,3.1805555555555554,
-0.915,-0.5,1146,3.183333333333333,
-0.91,-0.5,1147,3.186111111111111,
-0.92,-0.5,1148,3.188888888888889,
-0.915,-0.505,1149,3.191666666666667,
-0.92,-0.51,1150,3.1944444444444446,
-0.925,-0.515,1151,3.1972222222222224,
-0.935,-0.51,1152,3.2,
-0.94,-0.52,1153,3.202777777777778,
-0.94,-0.51,1154,3.2055555555555557,
-0.945,-0.5,1155,3.2083333333333335,
-0.94,-0.5,1156,3.2111111111111112,
-0.935,-0.48,1157,3.213888888888889,
-0.935,-0.47,1158,3.216666666666667,
-0.925,-0.475,1159,3.2194444444444446,
-0.915,-0.485,1160,3.2222222222222223,
-0.925,-0.49,1161,3.225,
-0.94,-0.49,1162,3.227777777777778,
-0.93,-0.505,1163,3.2305555555555556,
-0.93,-0.52,1164,3.2333333333333334,
-0.94,-0.545,1165,3.236111111111111,
-0.94,-0.53,1166,3.238888888888889,
-0.95,-0.53,1167,3.2416666666666667,
-0.945,-0.505,1168,3.2444444444444445,
-0.945,-0.49,1169,3.2472222222222222,
-0.955,-0.47,1170,3.25,
-0.94,-0.475,1171,3.2527777777777778,
-0.945,-0.48,1172,3.2555555555555555,
-0.945,-0.49,1173,3.2583333333333333,
-0.94,-0.5,1174,3.261111111111111,
-0.96,-0.525,1175,3.263888888888889,
-0.955,-0.52,1176,3.2666666666666666,
-0.97,-0.525,1177,3.2694444444444444,
-0.975,-0.53,1178,3.272222222222222,
-0.985,-0.52,1179,3.275,
-0.98,-0.5,1180,3.2777777777777777,
-0.97,-0.515,1181,3.2805555555555554,
-0.975,-0.51,1182,3.283333333333333,
-0.97,-0.5,1183,3.286111111111111,
-0.965,-0.51,1184,3.2888888888888888,
-0.97,-0.515,1185,3.2916666666666665,
-0.995,-0.52,1186,3.2944444444444443,
-1.0,-0.525,1187,3.297222222222222,
-1.005,-0.545,1188,3.3,
-1.01,-0.545,1189,3.3027777777777776,
-1.015,-0.55,1190,3.3055555555555554,
-1.02,-0.54,1191,3.308333333333333,
-1.02,-0.535,1192,3.311111111111111,
-1.02,-0.53,1193,3.313888888888889,
-1.015,-0.545,1194,3.316666666666667,
-1.025,-0.54,1195,3.3194444444444446,
-1.025,-0.545,1196,3.3222222222222224,
-1.035,-0.555,1197,3.325,
-1.04,-0.57,1198,3.327777777777778,
-1.02,-0.585,1199,3.3305555555555557,
-1.05,-0.605,1200,3.3333333333333335,
-1.055,-0.605,1201,3.3361111111111112,
-1.06,-0.615,1202,3.338888888888889,
-1.075,-0.63,1203,3.341666666666667,
-1.075,-0.615,1204,3.3444444444444446,
-1.07,-0.62,1205,3.3472222222222223,
-1.07,-0.625,1206,3.35,
-1.06,-0.62,1207,3.352777777777778,
-1.065,-0.645,1208,3.3555555555555556,
-1.065,-0.655,1209,3.3583333333333334,
-1.075,-0.675,1210,3.361111111111111,
-1.09,-0.685,1211,3.363888888888889,
-1.105,-0.71,1212,3.3666666666666667,
-1.125,-0.73,1213,3.3694444444444445,
-1.12,-0.72,1214,3.3722222222222222,
-1.125,-0.725,1215,3.375,
-1.125,-0.735,1216,3.3777777777777778,
-1.12,-0.72,1217,3.3805555555555555,
-1.115,-0.74,1218,3.3833333333333333,
-1.11,-0.735,1219,3.386111111111111,
-1.11,-0.74,1220,3.388888888888889,
-1.11,-0.765,1221,3.3916666666666666,
-1.125,-0.795,1222,3.3944444444444444,
-1.13,-0.805,1223,3.397222222222222,
-1.125,-0.825,1224,3.4,
-1.115,-0.83,1225,3.4027777777777777,
-1.115,-0.835,1226,3.4055555555555554,
-1.11,-0.835,1227,3.408333333333333,
-1.09,-0.835,1228,3.411111111111111,
-1.08,-0.83,1229,3.4138888888888888,
-1.055,-0.84,1230,3.4166666666666665,
-1.05,-0.83,1231,3.4194444444444443,
-1.035,-0.835,1232,3.422222222222222,
-1.03,-0.845,1233,3.425,
-1.01,-0.85,1234,3.4277777777777776,
-1.0,-0.845,1235,3.4305555555555554,
-0.985,-0.855,1236,3.433333333333333,
-0.98,-0.85,1237,3.436111111111111,
-0.965,-0.845,1238,3.438888888888889,
-0.95,-0.85,1239,3.441666666666667,
-0.935,-0.835,1240,3.4444444444444446,
-0.91,-0.83,1241,3.4472222222222224,
-0.885,-0.815,1242,3.45,
-0.865,-0.8,1243,3.452777777777778,
-0.845,-0.805,1244,3.4555555555555557,
-0.83,-0.815,1245,3.4583333333333335,
-0.815,-0.82,1246,3.4611111111111112,
-0.8,-0.815,1247,3.463888888888889,
-0.8,-0.815,1248,3.466666666666667,
-0.785,-0.815,1249,3.4694444444444446,
-0.785,-0.82,1250,3.4722222222222223,
-0.785,-0.8,1251,3.475,
-0.765,-0.79,1252,3.477777777777778,
-0.75,-0.78,1253,3.4805555555555556,
-0.735,-0.76,1254,3.4833333333333334,
-0.725,-0.74,1255,3.486111111111111,
-0.72,-0.745,1256,3.488888888888889,
-0.72,-0.75,1257,3.4916666666666667,
-0.72,-0.77,1258,3.4944444444444445,
-0.74,-0.755,1259,3.4972222222222222,
-0.755,-0.765,1260,3.5,
-0.75,-0.765,1261,3.5027777777777778,
-0.75,-0.755,1262,3.5055555555555555,
-0.745,-0.735,1263,3.5083333333333333,
-0.75,-0.725,1264,3.511111111111111,
-0.765,-0.735,1265,3.513888888888889,
-0.755,-0.72,1266,3.5166666666666666,
-0.76,-0.72,1267,3.5194444444444444,
-0.765,-0.715,1268,3.522222222222222,
-0.775,-0.725,1269,3.525,
-0.785,-0.735,1270,3.5277777777777777,
-0.81,-0.74,1271,3.5305555555555554,
-0.82,-0.745,1272,3.533333333333333,
-0.83,-0.735,1273,3.536111111111111,
-0.835,-0.74,1274,3.5388888888888888,
-0.84,-0.74,1275,3.5416666666666665,
-0.855,-0.72,1276,3.5444444444444443,
-0.845,-0.735,1277,3.547222222222222,
-0.85,-0.73,1278,3.55,
-0.85,-0.715,1279,3.5527777777777776,
-0.845,-0.72,1280,3.5555555555555554,
-0.855,-0.715,1281,3.558333333333333,
-0.85,-0.735,1282,3.561111111111111,
-0.86,-0.74,1283,3.563888888888889,
-0.875,-0.74,1284,3.566666666666667,
-0.87,-0.745,1285,3.5694444444444446,
-0.875,-0.745,1286,3.5722222222222224,
-0.875,-0.725,1287,3.575,
-0.88,-0.71,1288,3.577777777777778,
-0.875,-0.71,1289,3.5805555555555557,
-0.86,-0.705,1290,3.5833333333333335,
-0.855,-0.715,1291,3.5861111111111112,
-0.85,-0.705,1292,3.588888888888889,
-0.84,-0.71,1293,3.591666666666667,
-0.845,-0.715,1294,3.5944444444444446,
-0.85,-0.715,1295,3.5972222222222223,
-0.85,-0.725,1296,3.6,
-0.855,-0.715,1297,3.602777777777778,
-0.85,-0.72,1298,3.6055555555555556,
-0.855,-0.695,1299,3.6083333333333334,
-0.845,-0.695,1300,3.611111111111111,
-0.835,-0.695,1301,3.613888888888889,
-0.83,-0.69,1302,3.6166666666666667,
-0.83,-0.675,1303,3.6194444444444445,
-0.81,-0.685,1304,3.6222222222222222,
-0.805,-0.69,1305,3.625,
-0.815,-0.695,1306,3.6277777777777778,
-0.835,-0.7,1307,3.6305555555555555,
-0.845,-0.685,1308,3.6333333333333333,
-0.835,-0.69,1309,3.636111111111111,
-0.84,-0.7,1310,3.638888888888889,
-0.83,-0.7,1311,3.6416666666666666,
-0.81,-0.69,1312,3.6444444444444444,
-0.81,-0.68,1313,3.647222222222222,
-0.805,-0.68,1314,3.65,
-0.78,-0.665,1315,3.6527777777777777,
-0.79,-0.67,1316,3.6555555555555554,
-0.78,-0.67,1317,3.658333333333333,
-0.795,-0.69,1318,3.661111111111111,
-0.795,-0.685,1319,3.6638888888888888,
-0.785,-0.7,1320,3.6666666666666665,
-0.795,-0.7,1321,3.6694444444444443,
-0.81,-0.715,1322,3.672222222222222,
-0.8,-0.705,1323,3.675,
-0.79,-0.69,1324,3.6777777777777776,
-0.795,-0.68,1325,3.6805555555555554,
-0.795,-0.665,1326,3.683333333333333,
-0.775,-0.66,1327,3.686111111111111,
-0.765,-0.675,1328,3.688888888888889,
-0.765,-0.68,1329,3.691666666666667,
-0.76,-0.685,1330,3.6944444444444446,
-0.765,-0.7,1331,3.6972222222222224,
-0.76,-0.705,1332,3.7,
-0.77,-0.705,1333,3.702777777777778,
-0.78,-0.7,1334,3.7055555555555557,
-0.775,-0.71,1335,3.7083333333333335,
-0.76,-0.685,1336,3.7111111111111112,
-0.765,-0.685,1337,3.713888888888889,
-0.755,-0.67,1338,3.716666666666667,
-0.755,-0.67,1339,3.7194444444444446,
-0.74,-0.685,1340,3.7222222222222223,
-0.745,-0.69,1341,3.725,
-0.745,-0.7,1342,3.727777777777778,
-0.75,-0.695,1343,3.7305555555555556,
-0.76,-0.705,1344,3.7333333333333334,
-0.765,-0.71,1345,3.736111111111111,
-0.77,-0.715,1346,3.738888888888889,
-0.755,-0.715,1347,3.7416666666666667,
-0.755,-0.7,1348,3.7444444444444445,
-0.75,-0.7,1349,3.7472222222222222,
-0.745,-0.685,1350,3.75,
-0.74,-0.685,1351,3.7527777777777778,
-0.745,-0.695,1352,3.7555555555555555,
-0.75,-0.7,1353,3.7583333333333333,
-0.745,-0.705,1354,3.761111111111111,
-0.75,-0.715,1355,3.763888888888889,
-0.74,-0.7,1356,3.7666666666666666,
-0.735,-0.715,1357,3.7694444444444444,
-0.745,-0.71,1358,3.772222222222222,
-0.75,-0.7,1359,3.775,
-0.755,-0.695,1360,3.7777777777777777,
-0.745,-0.695,1361,3.7805555555555554,
-0.73,-0.68,1362,3.783333333333333,
-0.73,-0.685,1363,3.786111111111111,
-0.72,-0.695,1364,3.7888888888888888,
-0.725,-0.69,1365,3.7916666666666665,
-0.715,-0.7,1366,3.7944444444444443,
-0.725,-0.705,1367,3.797222222222222,
-0.73,-0.705,1368,3.8,
-0.735,-0.705,1369,3.8027777777777776,
-0.73,-0.71,1370,3.8055555555555554,
-0.73,-0.695,1371,3.808333333333333,
-0.735,-0.68,1372,3.811111111111111,
-0.715,-0.675,1373,3.813888888888889,
-0.705,-0.67,1374,3.816666666666667,
-0.705,-0.675,1375,3.8194444444444446,
-0.695,-0.675,1376,3.8222222222222224,
-0.695,-0.69,1377,3.825,
-0.69,-0.7,1378,3.827777777777778,
-0.7,-0.7,1379,3.8305555555555557,
-0.705,-0.71,1380,3.8333333333333335,
-0.705,-0.72,1381,3.8361111111111112,
-0.71,-0.71,1382,3.838888888888889,
-0.72,-0.71,1383,3.841666666666667,
-0.72,-0.715,1384,3.8444444444444446,
-0.72,-0.71,1385,3.8472222222222223,
-0.69,-0.71,1386,3.85,
-0.68,-0.7,1387,3.852777777777778,
-0.685,-0.7,1388,3.8555555555555556,
-0.685,-0.7,1389,3.8583333333333334,
-0.685,-0.7,1390,3.861111111111111,
-0.69,-0.71,1391,3.863888888888889,
-0.69,-0.71,1392,3.8666666666666667,
-0.695,-0.72,1393,3.8694444444444445,
-0.705,-0.725,1394,3.8722222222222222,
-0.7,-0.73,1395,3.875,
-0.695,-0.72,1396,3.8777777777777778,
-0.68,-0.705,1397,3.8805555555555555,
-0.67,-0.705,1398,3.8833333333333333,
-0.66,-0.705,1399,3.886111111111111,
-0.67,-0.695,1400,3.888888888888889,
-0.655,-0.715,1401,3.8916666666666666,
-0.655,-0.71,1402,3.8944444444444444,
-0.68,-0.705,1403,3.897222222222222,
-0.675,-0.725,1404,3.9,
-0.685,-0.735,1405,3.9027777777777777,
-0.68,-0.74,1406,3.9055555555555554,
-0.69,-0.74,1407,3.908333333333333,
-0.68,-0.73,1408,3.911111111111111,
-0.68,-0.715,1409,3.9138888888888888,
-0.67,-0.715,1410,3.9166666666666665,
-0.655,-0.7,1411,3.9194444444444443,
-0.66,-0.715,1412,3.922222222222222,
-0.67,-0.705,1413,3.925,
-0.665,-0.72,1414,3.9277777777777776,
-0.675,-0.73,1415,3.9305555555555554,
-0.68,-0.73,1416,3.933333333333333,
-0.68,-0.725,1417,3.936111111111111,
-0.67,-0.74,1418,3.938888888888889,
-0.665,-0.73,1419,3.941666666666667,
-0.665,-0.73,1420,3.9444444444444446,
-0.65,-0.72,1421,3.9472222222222224,
-0.645,-0.725,1422,3.95,
-0.63,-0.715,1423,3.952777777777778,
-0.63,-0.73,1424,3.9555555555555557,
-0.635,-0.725,1425,3.9583333333333335,
-0.645,-0.73,1426,3.9611111111111112,
-0.655,-0.745,1427,3.963888888888889,
-0.655,-0.755,1428,3.966666666666667,
-0.66,-0.755,1429,3.9694444444444446,
-0.665,-0.755,1430,3.9722222222222223,
-0.65,-0.76,1431,3.975,
-0.65,-0.74,1432,3.977777777777778,
-0.64,-0.73,1433,3.9805555555555556,
-0.65,-0.72,1434,3.9833333333333334,
-0.635,-0.72,1435,3.986111111111111,
-0.62,-0.725,1436,3.988888888888889,
-0.63,-0.725,1437,3.9916666666666667,
-0.635,-0.74,1438,3.9944444444444445,
-0.65,-0.745,1439,3.9972222222222222,
-0.655,-0.74,1440,4.0,
-0.655,-0.75,1441,4.002777777777778,
-0.655,-0.755,1442,4.0055555555555555,
-0.65,-0.75,1443,4.008333333333334,
-0.64,-0.74,1444,4.011111111111111,
-0.63,-0.75,1445,4.013888888888889,
-0.625,-0.74,1446,4.016666666666667,
-0.625,-0.73,1447,4.019444444444445,
-0.63,-0.73,1448,4.022222222222222,
-0.63,-0.745,1449,4.025,
-0.615,-0.75,1450,4.027777777777778,
-0.63,-0.75,1451,4.030555555555556,
-0.63,-0.76,1452,4.033333333333333,
-0.63,-0.755,1453,4.036111111111111,
-0.64,-0.765,1454,4.038888888888889,
-0.645,-0.76,1455,4.041666666666667,
-0.62,-0.75,1456,4.044444444444444,
-0.62,-0.75,1457,4.0472222222222225,
-0.595,-0.745,1458,4.05,
-0.605,-0.735,1459,4.052777777777778,
-0.59,-0.74,1460,4.055555555555555,
-0.6,-0.74,1461,4.058333333333334,
-0.595,-0.75,1462,4.061111111111111,
-0.61,-0.76,1463,4.063888888888889,
-0.625,-0.765,1464,4.066666666666666,
-0.625,-0.77,1465,4.069444444444445,
-0.61,-0.765,1466,4.072222222222222,
-0.605,-0.755,1467,4.075,
-0.605,-0.765,1468,4.0777777777777775,
-0.595,-0.755,1469,4.080555555555556,
-0.585,-0.75,1470,4.083333333333333,
-0.575,-0.745,1471,4.086111111111111,
-0.555,-0.75,1472,4.088888888888889,
-0.56,-0.765,1473,4.091666666666667,
-0.555,-0.765,1474,4.094444444444444,
-0.56,-0.765,1475,4.097222222222222,
-0.565,-0.765,1476,4.1,
-0.58,-0.77,1477,4.102777777777778,
-0.58,-0.765,1478,4.105555555555555,
-0.575,-0.77,1479,4.108333333333333,
-0.565,-0.755,1480,4.111111111111111,
-0.56,-0.74,1481,4.113888888888889,
-0.53,-0.745,1482,4.116666666666666,
-0.505,-0.73,1483,4.1194444444444445,
-0.49,-0.73,1484,4.122222222222222,
-0.495,-0.75,1485,4.125,
-0.485,-0.755,1486,4.127777777777778,
-0.5,-0.755,1487,4.1305555555555555,
-0.51,-0.76,1488,4.133333333333334,
-0.52,-0.775,1489,4.136111111111111,
-0.535,-0.765,1490,4.138888888888889,
-0.555,-0.755,1491,4.141666666666667,
-0.545,-0.75,1492,4.144444444444445,
-0.535,-0.765,1493,4.147222222222222,
-0.535,-0.745,1494,4.15,
-0.525,-0.735,1495,4.152777777777778,
-0.525,-0.72,1496,4.155555555555556,
-0.52,-0.735,1497,4.158333333333333,
-0.535,-0.74,1498,4.161111111111111,
-0.535,-0.73,1499,4.163888888888889,
-0.525,-0.735,1500,4.166666666666667,
-0.51,-0.73,1501,4.169444444444444,
-0.485,-0.725,1502,4.1722222222222225,
-0.49,-0.715,1503,4.175,
-0.48,-0.725,1504,4.177777777777778,
-0.48,-0.715,1505,4.180555555555555,
-0.48,-0.72,1506,4.183333333333334,
-0.485,-0.715,1507,4.186111111111111,
-0.505,-0.735,1508,4.188888888888889,
-0.53,-0.755,1509,4.191666666666666,
-0.54,-0.77,1510,4.194444444444445,
-0.565,-0.79,1511,4.197222222222222,
-0.575,-0.8,1512,4.2,
-0.595,-0.805,1513,4.2027777777777775,
-0.595,-0.81,1514,4.205555555555556,
-0.595,-0.8,1515,4.208333333333333,
-0.585,-0.775,1516,4.211111111111111,
-0.58,-0.78,1517,4.213888888888889,
-0.57,-0.77,1518,4.216666666666667,
-0.56,-0.765,1519,4.219444444444444,
-0.555,-0.77,1520,4.222222222222222,
-0.555,-0.79,1521,4.225,
-0.565,-0.815,1522,4.227777777777778,
-0.57,-0.835,1523,4.230555555555555,
-0.585,-0.86,1524,4.233333333333333,
-0.61,-0.885,1525,4.236111111111111,
-0.6,-0.875,1526,4.238888888888889,
-0.57,-0.815,1527,4.241666666666666,
-0.515,-0.7,1528,4.2444444444444445,
-0.44,-0.595,1529,4.247222222222222,
-0.35,-0.48,1530,4.25,
-0.26,-0.41,1531,4.252777777777778,
-0.185,-0.41,1532,4.2555555555555555,
-0.165,-0.475,1533,4.258333333333334,
-0.165,-0.595,1534,4.261111111111111,
-0.23,-0.83,1535,4.263888888888889,
-0.325,-1.11,1536,4.266666666666667,
-0.46,-1.355,1537,4.269444444444445,
-0.56,-1.525,1538,4.272222222222222,
-0.57,-1.535,1539,4.275,
-0.47,-1.415,1540,4.277777777777778,
-0.275,-1.195,1541,4.280555555555556,
-0.02,-0.97,1542,4.283333333333333,
0.26,-0.76,1543,4.286111111111111,
0.52,-0.595,1544,4.288888888888889,
0.76,-0.495,1545,4.291666666666667,
0.98,-0.435,1546,4.294444444444444,
1.17,-0.4,1547,4.2972222222222225,
1.345,-0.39,1548,4.3,
1.475,-0.4,1549,4.302777777777778,
1.555,-0.42,1550,4.305555555555555,
1.6,-0.47,1551,4.308333333333334,
1.615,-0.55,1552,4.311111111111111,R
1.55,-0.655,1553,4.313888888888889,
1.48,-0.71,1554,4.316666666666666,
1.375,-0.75,1555,4.319444444444445,
1.21,-0.805,1556,4.322222222222222,
0.995,-0.81,1557,4.325,
0.795,-0.795,1558,4.3277777777777775,
0.595,-0.79,1559,4.330555555555556,
0.4,-0.775,1560,4.333333333333333,
0.21,-0.755,1561,4.336111111111111,
0.0,-0.75,1562,4.338888888888889,
-0.19,-0.755,1563,4.341666666666667,
-0.38,-0.79,1564,4.344444444444444,
-0.55,-0.845,1565,4.347222222222222,
-0.675,-0.88,1566,4.35,
-0.76,-0.89,1567,4.352777777777778,
-0.8,-0.9,1568,4.355555555555555,
-0.81,-0.87,1569,4.358333333333333,
-0.815,-0.84,1570,4.361111111111111,
-0.8,-0.81,1571,4.363888888888889,
-0.78,-0.8,1572,4.366666666666666,
-0.765,-0.78,1573,4.3694444444444445,
-0.755,-0.77,1574,4.372222222222222,
-0.74,-0.75,1575,4.375,
-0.72,-0.72,1576,4.377777777777778,
-0.705,-0.68,1577,4.3805555555555555,
-0.675,-0.67,1578,4.383333333333334,
-0.67,-0.655,1579,4.386111111111111,
-0.655,-0.65,1580,4.388888888888889,
-0.66,-0.665,1581,4.391666666666667,
-0.665,-0.66,1582,4.394444444444445,
-0.67,-0.665,1583,4.397222222222222,
-0.68,-0.665,1584,4.4,
-0.695,-0.66,1585,4.402777777777778,
-0.705,-0.66,1586,4.405555555555556,
-0.705,-0.66,1587,4.408333333333333,
-0.705,-0.655,1588,4.411111111111111,
-0.695,-0.645,1589,4.413888888888889,
-0.67,-0.65,1590,4.416666666666667,
-0.665,-0.625,1591,4.419444444444444,
-0.66,-0.64,1592,4.4222222222222225,
-0.665,-0.64,1593,4.425,
-0.68,-0.65,1594,4.427777777777778,
-0.69,-0.655,1595,4.430555555555555,
-0.685,-0.665,1596,4.433333333333334,
-0.695,-0.67,1597,4.436111111111111,
-0.7,-0.66,1598,4.438888888888889,
-0.7,-0.67,1599,4.441666666666666,
-0.7,-0.655,1600,4.444444444444445,
-0.695,-0.665,1601,4.447222222222222,
-0.69,-0.655,1602,4.45,
-0.69,-0.65,1603,4.4527777777777775,
-0.675,-0.65,1604,4.455555555555556,
-0.68,-0.65,1605,4.458333333333333,
-0.69,-0.65,1606,4.461111111111111,
-0.69,-0.66,1607,4.463888888888889,
-0.7,-0.665,1608,4.466666666666667,
-0.705,-0.675,1609,4.469444444444444,
-0.715,-0.67,1610,4.472222222222222,
-0.71,-0.665,1611,4.475,
-0.715,-0.66,1612,4.477777777777778,
-0.7,-0.655,1613,4.480555555555555,
-0.695,-0.64,1614,4.483333333333333,
-0.7,-0.635,1615,4.486111111111111,
-0.69,-0.63,1616,4.488888888888889,
-0.69,-0.65,1617,4.491666666666666,
-0.705,-0.655,1618,4.4944444444444445,
-0.71,-0.665,1619,4.497222222222222,
-0.72,-0.67,1620,4.5,
-0.73,-0.695,1621,4.502777777777778,
-0.745,-0.68,1622,4.5055555555555555,
-0.745,-0.68,1623,4.508333333333334,
-0.745,-0.685,1624,4.511111111111111,
-0.73,-0.675,1625,4.513888888888889,
-0.74,-0.665,1626,4.516666666666667,
-0.745,-0.66,1627,4.519444444444445,
-0.72,-0.66,1628,4.522222222222222,
-0.725,-0.675,1629,4.525,
-0.75,-0.69,1630,4.527777777777778,
-0.75,-0.695,1631,4.530555555555556,
-0.755,-0.705,1632,4.533333333333333,
-0.765,-0.71,1633,4.536111111111111,
-0.77,-0.705,1634,4.538888888888889,
-0.77,-0.71,1635,4.541666666666667,
-0.78,-0.71,1636,4.544444444444444,
-0.775,-0.705,1637,4.5472222222222225,
-0.785,-0.705,1638,4.55,
-0.775,-0.705,1639,4.552777777777778,
-0.775,-0.73,1640,4.555555555555555,
-0.78,-0.73,1641,4.558333333333334,
-0.795,-0.74,1642,4.561111111111111,
-0.805,-0.77,1643,4.563888888888889,
-0.82,-0.77,1644,4.566666666666666,
-0.825,-0.79,1645,4.569444444444445,
-0.82,-0.805,1646,4.572222222222222,
-0.825,-0.795,1647,4.575,
-0.835,-0.8,1648,4.5777777777777775,
-0.825,-0.795,1649,4.580555555555556,
-0.815,-0.795,1650,4.583333333333333,
-0.82,-0.795,1651,4.586111111111111,
-0.815,-0.795,1652,4.588888888888889,
-0.825,-0.81,1653,4.591666666666667,
-0.84,-0.825,1654,4.594444444444444,
-0.83,-0.84,1655,4.597222222222222,
-0.835,-0.86,1656,4.6,
-0.845,-0.87,1657,4.602777777777778,
-0.84,-0.885,1658,4.605555555555555,
-0.84,-0.85,1659,4.608333333333333,
-0.83,-0.87,1660,4.611111111111111,
-0.83,-0.865,1661,4.613888888888889,
-0.815,-0.865,1662,4.616666666666666,
-0.8,-0.845,1663,4.6194444444444445,
-0.79,-0.86,1664,4.622222222222222,
-0.79,-0.88,1665,4.625,
-0.78,-0.875,1666,4.627777777777778,
-0.785,-0.89,1667,4.6305555555555555,
-0.78,-0.91,1668,4.633333333333334,
-0.775,-0.9,1669,4.636111111111111,
-0.765,-0.89,1670,4.638888888888889,
-0.745,-0.88,1671,4.641666666666667,
-0.725,-0.87,1672,4.644444444444445,
-0.705,-0.88,1673,4.647222222222222,
-0.675,-0.86,1674,4.65,
-0.66,-0.865,1675,4.652777777777778,
-0.65,-0.855,1676,4.655555555555556,
-0.64,-0.865,1677,4.658333333333333,
-0.62,-0.87,1678,4.661111111111111,
-0.595,-0.87,1679,4.663888888888889,
-0.585,-0.88,1680,4.666666666666667,
-0.58,-0.885,1681,4.669444444444444,
-0.58,-0.875,1682,4.6722222222222225,
-0.555,-0.855,1683,4.675,
-0.54,-0.845,1684,4.677777777777778,
-0.535,-0.845,1685,4.680555555555555,
-0.52,-0.84,1686,4.683333333333334,
-0.49,-0.835,1687,4.686111111111111,
-0.47,-0.82,1688,4.688888888888889,
-0.465,-0.83,1689,4.691666666666666,
-0.455,-0.84,1690,4.694444444444445,
-0.455,-0.835,1691,4.697222222222222,
-0.46,-0.85,1692,4.7,
-0.475,-0.85,1693,4.7027777777777775,
-0.455,-0.845,1694,4.705555555555556,
-0.465,-0.835,1695,4.708333333333333,
-0.455,-0.83,1696,4.711111111111111,
-0.45,-0.84,1697,4.713888888888889,
-0.445,-0.83,1698,4.716666666666667,
-0.45,-0.835,1699,4.719444444444444,
-0.45,-0.84,1700,4.722222222222222,
-0.45,-0.84,1701,4.725,
-0.455,-0.85,1702,4.727777777777778,
-0.48,-0.865,1703,4.730555555555555,
-0.505,-0.87,1704,4.733333333333333,
-0.51,-0.87,1705,4.736111111111111,
-0.52,-0.865,1706,4.738888888888889,
-0.535,-0.86,1707,4.741666666666666,
-0.545,-0.845,1708,4.7444444444444445,
-0.55,-0.855,1709,4.747222222222222,
-0.555,-0.86,1710,4.75,
-0.555,-0.85,1711,4.752777777777778,
-0.565,-0.86,1712,4.7555555555555555,
-0.58,-0.86,1713,4.758333333333334,
-0.585,-0.855,1714,4.761111111111111,
-0.615,-0.875,1715,4.763888888888889,
-0.62,-0.885,1716,4.766666666666667,
-0.645,-0.885,1717,4.769444444444445,
-0.655,-0.895,1718,4.772222222222222,
-0.655,-0.875,1719,4.775,
-0.665,-0.875,1720,4.777777777777778,
-0.66,-0.86,1721,4.780555555555556,
-0.655,-0.845,1722,4.783333333333333,
-0.645,-0.845,1723,4.786111111111111,
-0.65,-0.85,1724,4.788888888888889,
-0.655,-0.855,1725,4.791666666666667,
-0.665,-0.86,1726,4.794444444444444,
-0.675,-0.86,1727,4.7972222222222225,
-0.68,-0.88,1728,4.8,
-0.69,-0.88,1729,4.802777777777778,
-0.695,-0.875,1730,4.805555555555555,
-0.69,-0.875,1731,4.808333333333334,
-0.68,-0.86,1732,4.811111111111111,
-0.675,-0.85,1733,4.813888888888889,
-0.665,-0.84,1734,4.816666666666666,
-0.65,-0.84,1735,4.819444444444445,
-0.635,-0.83,1736,4.822222222222222,
-0.65,-0.83,1737,4.825,
-0.64,-0.835,1738,4.8277777777777775,
-0.65,-0.83,1739,4.830555555555556,
-0.65,-0.825,1740,4.833333333333333,
-0.655,-0.835,1741,4.836111111111111,
-0.65,-0.835,1742,4.838888888888889,
-0.645,-0.82,1743,4.841666666666667,
-0.65,-0.815,1744,4.844444444444444,
-0.635,-0.8,1745,4.847222222222222,
-0.615,-0.785,1746,4.85,
-0.62,-0.775,1747,4.852777777777778,
-0.605,-0.77,1748,4.855555555555555,
-0.62,-0.775,1749,4.858333333333333,
-0.615,-0.79,1750,4.861111111111111,
-0.625,-0.81,1751,4.863888888888889,
-0.61,-0.805,1752,4.866666666666666,
-0.62,-0.805,1753,4.8694444444444445,
-0.62,-0.79,1754,4.872222222222222,
-0.625,-0.775,1755,4.875,
-0.63,-0.77,1756,4.877777777777778,
-0.615,-0.75,1757,4.8805555555555555,
-0.595,-0.745,1758,4.883333333333334,
-0.595,-0.75,1759,4.886111111111111,
-0.575,-0.74,1760,4.888888888888889,
-0.59,-0.755,1761,4.891666666666667,
-0.58,-0.755,1762,4.894444444444445,
-0.58,-0.77,1763,4.897222222222222,
-0.59,-0.77,1764,4.9,
-0.595,-0.775,1765,4.902777777777778,
-0.59,-0.77,1766,4.905555555555556,
-0.59,-0.755,1767,4.908333333333333,
-0.58,-0.75,1768,4.911111111111111,
-0.57,-0.73,1769,4.913888888888889,
-0.565,-0.735,1770,4.916666666666667,
-0.56,-0.72,1771,4.919444444444444,
-0.55,-0.73,1772,4.9222222222222225,
-0.565,-0.73,1773,4.925,
-0.575,-0.75,1774,4.927777777777778,
-0.57,-0.75,1775,4.930555555555555,
-0.58,-0.755,1776,4.933333333333334,
-0.575,-0.76,1777,4.936111111111111,
-0.595,-0.755,1778,4.938888888888889,
-0.595,-0.745,1779,4.941666666666666,
-0.58,-0.735,1780,4.944444444444445,
-0.575,-0.745,1781,4.947222222222222,
-0.57,-0.74,1782,4.95,
-0.565,-0.725,1783,4.9527777777777775,
-0.56,-0.735,1784,4.955555555555556,
-0.55,-0.73,1785,4.958333333333333,
-0.555,-0.72,1786,4.961111111111111,
-0.57,-0.74,1787,4.963888888888889,
-0.565,-0.735,1788,4.966666666666667,
-0.58,-0.74,1789,4.969444444444444,
-0.575,-0.735,1790,4.972222222222222,
-0.585,-0.735,1791,4.975,
-0.58,-0.73,1792,4.977777777777778,
-0.58,-0.73,1793,4.980555555555555,
-0.565,-0.71,1794,4.983333333333333,
-0.555,-0.71,1795,4.986111111111111,
-0.55,-0.705,1796,4.988888888888889,
-0.555,-0.71,1797,4.991666666666666,
-0.555,-0.705,1798,4.9944444444444445,
-0.565,-0.715,1799,4.997222222222222,
-0.56,-0.725,1800,5.0,
-0.57,-0.725,1801,5.002777777777778,
-0.57,-0.73,1802,5.0055555555555555,
-0.575,-0.735,1803,5.008333333333334,
-0.57,-0.725,1804,5.011111111111111,
-0.575,-0.71,1805,5.013888888888889,
-0.555,-0.7,1806,5.016666666666667,
-0.56,-0.685,1807,5.019444444444445,
-0.555,-0.685,1808,5.022222222222222,
-0.55,-0.69,1809,5.025,
-0.56,-0.69,1810,5.027777777777778,
-0.57,-0.705,1811,5.030555555555556,
-0.565,-0.705,1812,5.033333333333333,
-0.575,-0.71,1813,5.036111111111111,
-0.58,-0.7,1814,5.038888888888889,
-0.565,-0.7,1815,5.041666666666667,
-0.56,-0.69,1816,5.044444444444444,
-0.555,-0.685,1817,5.0472222222222225,
-0.555,-0.68,1818,5.05,
-0.545,-0.665,1819,5.052777777777778,
-0.55,-0.665,1820,5.055555555555555,
-0.55,-0.685,1821,5.058333333333334,
-0.55,-0.69,1822,5.061111111111111,
-0.575,-0.7,1823,5.063888888888889,
-0.565,-0.71,1824,5.066666666666666,
-0.565,-0.715,1825,5.069444444444445,
-0.57,-0.71,1826,5.072222222222222,
-0.565,-0.705,1827,5.075,
-0.565,-0.69,1828,5.0777777777777775,
-0.555,-0.69,1829,5.080555555555556,
-0.54,-0.68,1830,5.083333333333333,
-0.555,-0.675,1831,5.086111111111111,
-0.55,-0.68,1832,5.088888888888889,
-0.56,-0.68,1833,5.091666666666667,
-0.56,-0.68,1834,5.094444444444444,
-0.555,-0.69,1835,5.097222222222222,
-0.575,-0.705,1836,5.1,
-0.57,-0.69,1837,5.102777777777778,
-0.575,-0.695,1838,5.105555555555555,
-0.58,-0.685,1839,5.108333333333333,
-0.57,-0.665,1840,5.111111111111111,
-0.565,-0.65,1841,5.113888888888889,
-0.55,-0.66,1842,5.116666666666666,
-0.545,-0.65,1843,5.1194444444444445,
-0.535,-0.66,1844,5.122222222222222,
-0.545,-0.66,1845,5.125,
-0.54,-0.68,1846,5.127777777777778,
-0.555,-0.69,1847,5.1305555555555555,
-0.555,-0.695,1848,5.133333333333334,
-0.565,-0.69,1849,5.136111111111111,
-0.56,-0.68,1850,5.138888888888889,
-0.56,-0.68,1851,5.141666666666667,
-0.56,-0.675,1852,5.144444444444445,
-0.555,-0.655,1853,5.147222222222222,
-0.565,-0.67,1854,5.15,
-0.555,-0.645,1855,5.152777777777778,
-0.55,-0.66,1856,5.155555555555556,
-0.555,-0.655,1857,5.158333333333333,
-0.555,-0.675,1858,5.161111111111111,
-0.55,-0.68,1859,5.163888888888889,
-0.555,-0.68,1860,5.166666666666667,
-0.565,-0.675,1861,5.169444444444444,
-0.56,-0.67,1862,5.1722222222222225,
-0.55,-0.675,1863,5.175,
-0.555,-0.665,1864,5.177777777777778,
-0.56,-0.68,1865,5.180555555555555,
-0.57,-0.665,1866,5.183333333333334,
-0.565,-0.665,1867,5.186111111111111,
-0.56,-0.645,1868,5.188888888888889,
-0.55,-0.655,1869,5.191666666666666,
-0.555,-0.64,1870,5.194444444444445,
-0.555,-0.67,1871,5.197222222222222,
-0.55,-0.675,1872,5.2,
-0.57,-0.665,1873,5.2027777777777775,
-0.565,-0.67,1874,5.205555555555556,
-0.57,-0.675,1875,5.208333333333333,
-0.565,-0.675,1876,5.211111111111111,
-0.56,-0.665,1877,5.213888888888889,
-0.555,-0.66,1878,5.216666666666667,
-0.55,-0.645,1879,5.219444444444444,
-0.545,-0.635,1880,5.222222222222222,
-0.55,-0.635,1881,5.225,
-0.555,-0.645,1882,5.227777777777778,
-0.555,-0.645,1883,5.230555555555555,
-0.565,-0.655,1884,5.233333333333333,
-0.565,-0.655,1885,5.236111111111111,
-0.57,-0.655,1886,5.238888888888889,
-0.585,-0.66,1887,5.241666666666666,
-0.575,-0.645,1888,5.2444444444444445,
-0.57,-0.645,1889,5.247222222222222,
-0.55,-0.65,1890,5.25,
-0.55,-0.625,1891,5.252777777777778,
-0.535,-0.625,1892,5.2555555555555555,
-0.55,-0.635,1893,5.258333333333334,
-0.56,-0.645,1894,5.261111111111111,
-0.555,-0.645,1895,5.263888888888889,
-0.565,-0.66,1896,5.266666666666667,
-0.565,-0.66,1897,5.269444444444445,
-0.565,-0.65,1898,5.272222222222222,
-0.57,-0.645,1899,5.275,
-0.56,-0.65,1900,5.277777777777778,
-0.565,-0.63,1901,5.280555555555556,
-0.55,-0.62,1902,5.283333333333333,
-0.54,-0.62,1903,5.286111111111111,
-0.535,-0.615,1904,5.288888888888889,
-0.54,-0.625,1905,5.291666666666667,
-0.55,-0.635,1906,5.294444444444444,
-0.55,-0.635,1907,5.2972222222222225,
-0.57,-0.635,1908,5.3,
-0.565,-0.64,1909,5.302777777777778,
-0.565,-0.64,1910,5.305555555555555,
-0.56,-0.62,1911,5.308333333333334,
-0.55,-0.62,1912,5.311111111111111,
-0.53,-0.62,1913,5.313888888888889,
-0.54,-0.62,1914,5.316666666666666,
-0.53,-0.61,1915,5.319444444444445,
-0.525,-0.62,1916,5.322222222222222,
-0.535,-0.64,1917,5.325,
-0.535,-0.62,1918,5.3277777777777775,
-0.55,-0.645,1919,5.330555555555556,
-0.54,-0.64,1920,5.333333333333333,
-0.54,-0.625,1921,5.336111111111111,
-0.53,-0.62,1922,5.338888888888889,
-0.52,-0.62,1923,5.341666666666667,
-0.51,-0.615,1924,5.344444444444444,
-0.495,-0.605,1925,5.347222222222222,
-0.485,-0.59,1926,5.35,
-0.48,-0.57,1927,5.352777777777778,
-0.485,-0.58,1928,5.355555555555555,
-0.49,-0.58,1929,5.358333333333333,
-0.5,-0.59,1930,5.361111111111111,
-0.515,-0.595,1931,5.363888888888889,
-0.53,-0.605,1932,5.366666666666666,
-0.53,-0.605,1933,5.3694444444444445,
-0.55,-0.6,1934,5.372222222222222,
-0.545,-0.585,1935,5.375,
-0.555,-0.58,1936,5.377777777777778,
-0.545,-0.565,1937,5.3805555555555555,
-0.53,-0.56,1938,5.383333333333334,
-0.505,-0.535,1939,5.386111111111111,
-0.49,-0.535,1940,5.388888888888889,
-0.48,-0.545,1941,5.391666666666667,
-0.495,-0.54,1942,5.394444444444445,
-0.49,-0.55,1943,5.397222222222222,
-0.505,-0.57,1944,5.4,
-0.525,-0.57,1945,5.402777777777778,
-0.535,-0.57,1946,5.405555555555556,
-0.545,-0.57,1947,5.408333333333333,
-0.555,-0.58,1948,5.411111111111111,
-0.565,-0.575,1949,5.413888888888889,
-0.56,-0.58,1950,5.416666666666667,
-0.565,-0.59,1951,5.419444444444444,
-0.57,-0.59,1952,5.4222222222222225,
-0.585,-0.6,1953,5.425,
-0.58,-0.6,1954,5.427777777777778,
-0.59,-0.615,1955,5.430555555555555,
-0.6,-0.61,1956,5.433333333333334,
-0.6,-0.625,1957,5.436111111111111,
-0.6,-0.625,1958,5.438888888888889,
-0.595,-0.62,1959,5.441666666666666,
-0.6,-0.615,1960,5.444444444444445,
-0.58,-0.62,1961,5.447222222222222,
-0.595,-0.625,1962,5.45,
-0.585,-0.635,1963,5.4527777777777775,
-0.6,-0.64,1964,5.455555555555556,
-0.59,-0.61,1965,5.458333333333333,
-0.55,-0.51,1966,5.461111111111111,
-0.475,-0.385,1967,5.463888888888889,
-0.38,-0.275,1968,5.466666666666667,
-0.3,-0.19,1969,5.469444444444444,
-0.23,-0.18,1970,5.472222222222222,
-0.185,-0.25,1971,5.475,
-0.185,-0.405,1972,5.477777777777778,
-0.26,-0.695,1973,5.480555555555555,
-0.42,-1.005,1974,5.483333333333333,
-0.59,-1.28,1975,5.486111111111111,
-0.69,-1.435,1976,5.488888888888889,
-0.685,-1.435,1977,5.491666666666666,
-0.57,-1.3,1978,5.4944444444444445,
-0.36,-1.095,1979,5.497222222222222,
-0.11,-0.89,1980,5.5,
0.15,-0.72,1981,5.502777777777778,
0.39,-0.585,1982,5.5055555555555555,
0.615,-0.515,1983,5.508333333333334,
0.82,-0.48,1984,5.511111111111111,
1.0,-0.47,1985,5.513888888888889,
1.14,-0.46,1986,5.516666666666667,
1.24,-0.46,1987,5.519444444444445,
1.285,-0.495,1988,5.522222222222222,
1.275,-0.55,1989,5.525,R
1.225,-0.585,1990,5.527777777777778,
1.155,-0.595,1991,5.530555555555556,
1.035,-0.59,1992,5.533333333333333,
0.88,-0.575,1993,5.536111111111111,
0.695,-0.565,1994,5.538888888888889,
0.49,-0.535,1995,5.541666666666667,
0.3,-0.51,1996,5.544444444444444,
0.11,-0.495,1997,5.5472222222222225,
-0.09,-0.495,1998,5.55,
-0.295,-0.52,1999,5.552777777777778,
-0.475,-0.575,2000,5.555555555555555,
-0.635,-0.605,2001,5.558333333333334,
-0.745,-0.63,2002,5.561111111111111,
-0.805,-0.64,2003,5.563888888888889,
-0.84,-0.62,2004,5.566666666666666,
-0.84,-0.59,2005,5.569444444444445,
-0.825,-0.545,2006,5.572222222222222,
-0.795,-0.515,2007,5.575,
-0.765,-0.49,2008,5.5777777777777775,
-0.745,-0.485,2009,5.580555555555556,
-0.715,-0.45,2010,5.583333333333333,
-0.685,-0.44,2011,5.586111111111111,
-0.685,-0.43,2012,5.588888888888889,
-0.675,-0.43,2013,5.591666666666667,
-0.685,-0.425,2014,5.594444444444444,
-0.69,-0.415,2015,5.597222222222222,
-0.715,-0.43,2016,5.6,
-0.72,-0.425,2017,5.602777777777778,
-0.72,-0.435,2018,5.605555555555555,
-0.73,-0.435,2019,5.608333333333333,
-0.73,-0.41,2020,5.611111111111111,
-0.73,-0.415,2021,5.613888888888889,
-0.71,-0.405,2022,5.616666666666666,
-0.7,-0.385,2023,5.6194444444444445,
-0.69,-0.375,2024,5.622222222222222,
-0.7,-0.38,2025,5.625,
-0.695,-0.385,2026,5.627777777777778,
-0.705,-0.39,2027,5.6305555555555555,
-0.705,-0.405,2028,5.633333333333334,
-0.71,-0.405,2029,5.636111111111111,
-0.71,-0.405,2030,5.638888888888889,
-0.71,-0.39,2031,5.641666666666667,
-0.72,-0.39,2032,5.644444444444445,
-0.725,-0.38,2033,5.647222222222222,
-0.715,-0.365,2034,5.65,
-0.715,-0.345,2035,5.652777777777778,
-0.705,-0.36,2036,5.655555555555556,
-0.715,-0.37,2037,5.658333333333333,
-0.715,-0.37,2038,5.661111111111111,
-0.72,-0.39,2039,5.663888888888889,
-0.735,-0.385,2040,5.666666666666667,
-0.74,-0.395,2041,5.669444444444444,
-0.75,-0.395,2042,5.6722222222222225,
-0.74,-0.395,2043,5.675,
-0.76,-0.385,2044,5.677777777777778,
-0.765,-0.38,2045,5.680555555555555,
-0.74,-0.365,2046,5.683333333333334,
-0.74,-0.355,2047,5.686111111111111,
-0.735,-0.35,2048,5.688888888888889,
-0.74,-0.355,2049,5.691666666666666,
-0.755,-0.38,2050,5.694444444444445,
-0.765,-0.395,2051,5.697222222222222,
-0.77,-0.4,2052,5.7,
-0.785,-0.41,2053,5.7027777777777775,
-0.785,-0.405,2054,5.705555555555556,
-0.79,-0.4,2055,5.708333333333333,
-0.785,-0.385,2056,5.711111111111111,
-0.795,-0.385,2057,5.713888888888889,
-0.785,-0.385,2058,5.716666666666667,
-0.795,-0.38,2059,5.719444444444444,
-0.8,-0.395,2060,5.722222222222222,
-0.79,-0.395,2061,5.725,
-0.81,-0.41,2062,5.727777777777778,
-0.81,-0.425,2063,5.730555555555555,
-0.82,-0.44,2064,5.733333333333333,
-0.825,-0.445,2065,5.736111111111111,
-0.84,-0.455,2066,5.738888888888889,
-0.86,-0.44,2067,5.741666666666666,
-0.84,-0.445,2068,5.7444444444444445,
-0.845,-0.45,2069,5.747222222222222,
-0.845,-0.45,2070,5.75,
-0.845,-0.455,2071,5.752777777777778,
-0.845,-0.46,2072,5.7555555555555555,
-0.855,-0.47,2073,5.758333333333334,
-0.865,-0.485,2074,5.761111111111111,
-0.875,-0.5,2075,5.763888888888889,
-0.885,-0.515,2076,5.766666666666667,
-0.9,-0.525,2077,5.769444444444445,
-0.925,-0.52,2078,5.772222222222222,
-0.93,-0.535,2079,5.775,
-0.925,-0.55,2080,5.777777777777778,
-0.915,-0.545,2081,5.780555555555556,
-0.915,-0.55,2082,5.783333333333333,
-0.905,-0.55,2083,5.786111111111111,
-0.91,-0.57,2084,5.788888888888889,
-0.915,-0.575,2085,5.791666666666667,
-0.925,-0.585,2086,5.794444444444444,
-0.94,-0.6,2087,5.7972222222222225,
-0.955,-0.615,2088,5.8,
-0.945,-0.615,2089,5.802777777777778,
-0.96,-0.62,2090,5.805555555555555,
-0.95,-0.63,2091,5.808333333333334,
-0.945,-0.64,2092,5.811111111111111,
-0.935,-0.63,2093,5.813888888888889,
-0.935,-0.635,2094,5.816666666666666,
-0.92,-0.635,2095,5.819444444444445,
-0.895,-0.64,2096,5.822222222222222,
-0.9,-0.655,2097,5.825,
-0.89,-0.655,2098,5.8277777777777775,
-0.89,-0.675,2099,5.830555555555556,
-0.885,-0.675,2100,5.833333333333333,
-0.885,-0.68,2101,5.836111111111111,
-0.865,-0.69,2102,5.838888888888889,
-0.84,-0.695,2103,5.841666666666667,
-0.825,-0.685,2104,5.844444444444444,
-0.8,-0.675,2105,5.847222222222222,
-0.79,-0.67,2106,5.85,
-0.77,-0.665,2107,5.852777777777778,
-0.74,-0.655,2108,5.855555555555555,
-0.73,-0.665,2109,5.858333333333333,
-0.72,-0.665,2110,5.861111111111111,
-0.705,-0.665,2111,5.863888888888889,
-0.7,-0.67,2112,5.866666666666666,
-0.69,-0.665,2113,5.8694444444444445,
-0.67,-0.65,2114,5.872222222222222,
-0.66,-0.65,2115,5.875,
-0.65,-0.635,2116,5.877777777777778,
-0.625,-0.63,2117,5.8805555555555555,
-0.605,-0.615,2118,5.883333333333334,
-0.59,-0.605,2119,5.886111111111111,
-0.58,-0.61,2120,5.888888888888889,
-0.565,-0.605,2121,5.891666666666667,
-0.555,-0.61,2122,5.894444444444445,
-0.56,-0.615,2123,5.897222222222222,
-0.565,-0.61,2124,5.9,
-0.555,-0.62,2125,5.902777777777778,
-0.565,-0.605,2126,5.905555555555556,
-0.565,-0.605,2127,5.908333333333333,
-0.57,-0.585,2128,5.911111111111111,
-0.565,-0.585,2129,5.913888888888889,
-0.59,-0.565,2130,5.916666666666667,
-0.575,-0.57,2131,5.919444444444444,
-0.57,-0.56,2132,5.9222222222222225,
-0.57,-0.555,2133,5.925,
-0.585,-0.575,2134,5.927777777777778,
-0.605,-0.59,2135,5.930555555555555,
-0.62,-0.595,2136,5.933333333333334,
-0.645,-0.585,2137,5.936111111111111,
-0.65,-0.585,2138,5.938888888888889,
-0.655,-0.585,2139,5.941666666666666,
-0.66,-0.565,2140,5.944444444444445,
-0.665,-0.55,2141,5.947222222222222,
-0.66,-0.555,2142,5.95,
-0.675,-0.55,2143,5.9527777777777775,
-0.68,-0.545,2144,5.955555555555556,
-0.7,-0.55,2145,5.958333333333333,
-0.695,-0.555,2146,5.961111111111111,
-0.725,-0.56,2147,5.963888888888889,
-0.72,-0.575,2148,5.966666666666667,
-0.72,-0.56,2149,5.969444444444444,
-0.74,-0.57,2150,5.972222222222222,
-0.745,-0.56,2151,5.975,
-0.745,-0.545,2152,5.977777777777778,
-0.73,-0.545,2153,5.980555555555555,
-0.73,-0.545,2154,5.983333333333333,
-0.72,-0.53,2155,5.986111111111111,
-0.715,-0.545,2156,5.988888888888889,
-0.73,-0.53,2157,5.991666666666666,
-0.74,-0.54,2158,5.9944444444444445,
-0.74,-0.555,2159,5.997222222222222,
-0.76,-0.565,2160,6.0,
-0.765,-0.555,2161,6.002777777777778,
-0.76,-0.565,2162,6.0055555555555555,
-0.755,-0.55,2163,6.008333333333334,
-0.765,-0.535,2164,6.011111111111111,
-0.76,-0.52,2165,6.013888888888889,
-0.74,-0.52,2166,6.016666666666667,
-0.735,-0.51,2167,6.019444444444445,
-0.725,-0.525,2168,6.022222222222222,
-0.725,-0.52,2169,6.025,
-0.725,-0.525,2170,6.027777777777778,
-0.725,-0.525,2171,6.030555555555556,
-0.73,-0.53,2172,6.033333333333333,
-0.74,-0.54,2173,6.036111111111111,
-0.735,-0.53,2174,6.038888888888889,
-0.735,-0.52,2175,6.041666666666667,
-0.745,-0.51,2176,6.044444444444444,
-0.725,-0.51,2177,6.0472222222222225,
-0.72,-0.51,2178,6.05,
-0.725,-0.495,2179,6.052777777777778,
-0.705,-0.475,2180,6.055555555555555,
-0.7,-0.48,2181,6.058333333333334,
-0.71,-0.49,2182,6.061111111111111,
-0.715,-0.485,2183,6.063888888888889,
-0.715,-0.495,2184,6.066666666666666,
-0.715,-0.49,2185,6.069444444444445,
-0.735,-0.495,2186,6.072222222222222,
-0.73,-0.505,2187,6.075,
-0.725,-0.48,2188,6.0777777777777775,
-0.715,-0.475,2189,6.080555555555556,
-0.7,-0.47,2190,6.083333333333333,
-0.69,-0.465,2191,6.086111111111111,
-0.695,-0.455,2192,6.088888888888889,
-0.705,-0.46,2193,6.091666666666667,
-0.705,-0.46,2194,6.094444444444444,
-0.71,-0.48,2195,6.097222222222222,
-0.705,-0.48,2196,6.1,
-0.705,-0.49,2197,6.102777777777778,
-0.715,-0.485,2198,6.105555555555555,
-0.705,-0.485,2199,6.108333333333333,
-0.7,-0.495,2200,6.111111111111111,
-0.705,-0.48,2201,6.113888888888889,
-0.69,-0.455,2202,6.116666666666666,
-0.68,-0.45,2203,6.1194444444444445,
-0.67,-0.455,2204,6.122222222222222,
-0.68,-0.45,2205,6.125,
-0.68,-0.45,2206,6.127777777777778,
-0.69,-0.465,2207,6.1305555555555555,
-0.685,-0.46,2208,6.133333333333334,
-0.7,-0.475,2209,6.136111111111111,
-0.7,-0.485,2210,6.138888888888889,
-0.7,-0.46,2211,6.141666666666667,
-0.71,-0.465,2212,6.144444444444445,
-0.7,-0.455,2213,6.147222222222222,
-0.685,-0.45,2214,6.15,
-0.69,-0.445,2215,6.152777777777778,
-0.675,-0.425,2216,6.155555555555556,
-0.675,-0.42,2217,6.158333333333333,
-0.685,-0.44,2218,6.161111111111111,
-0.685,-0.44,2219,6.163888888888889,
-0.685,-0.445,2220,6.166666666666667,
-0.705,-0.45,2221,6.169444444444444,
-0.71,-0.45,2222,6.1722222222222225,
-0.71,-0.46,2223,6.175,
-0.71,-0.445,2224,6.177777777777778,
-0.705,-0.44,2225,6.180555555555555,
-0.7,-0.43,2226,6.183333333333334,
-0.705,-0.425,2227,6.186111111111111,
-0.69,-0.425,2228,6.188888888888889,
-0.675,-0.42,2229,6.191666666666666,
-0.68,-0.43,2230,6.194444444444445,
-0.685,-0.44,2231,6.197222222222222,
-0.695,-0.45,2232,6.2,
-0.705,-0.46,2233,6.2027777777777775,
-0.71,-0.455,2234,6.205555555555556,
-0.705,-0.45,2235,6.208333333333333,
-0.705,-0.435,2236,6.211111111111111,
-0.695,-0.43,2237,6.213888888888889,
-0.7,-0.415,2238,6.216666666666667,
-0.68,-0.41,2239,6.219444444444444,
-0.675,-0.415,2240,6.222222222222222,
-0.69,-0.41,2241,6.225,
-0.7,-0.42,2242,6.227777777777778,
-0.685,-0.42,2243,6.230555555555555,
-0.7,-0.425,2244,6.233333333333333,
-0.69,-0.43,2245,6.236111111111111,
-0.695,-0.445,2246,6.238888888888889,
-0.71,-0.44,2247,6.241666666666666,
-0.71,-0.425,2248,6.2444444444444445,
-0.69,-0.425,2249,6.247222222222222,
-0.695,-0.425,2250,6.25,
-0.685,-0.415,2251,6.252777777777778,
-0.67,-0.4,2252,6.2555555555555555,
-0.675,-0.41,2253,6.258333333333334,
-0.685,-0.415,2254,6.261111111111111,
-0.685,-0.425,2255,6.263888888888889,
-0.685,-0.44,2256,6.266666666666667,
-0.7,-0.44,2257,6.269444444444445,
-0.705,-0.44,2258,6.272222222222222,
-0.715,-0.425,2259,6.275,
-0.71,-0.435,2260,6.277777777777778,
-0.705,-0.42,2261,6.280555555555556,
-0.695,-0.4,2262,6.283333333333333,
-0.695,-0.4,2263,6.286111111111111,
-0.695,-0.4,2264,6.288888888888889,
-0.69,-0.415,2265,6.291666666666667,
-0.69,-0.415,2266,6.294444444444444,
-0.69,-0.43,2267,6.2972222222222225,
-0.695,-0.435,2268,6.3,
-0.7,-0.435,2269,6.302777777777778,
-0.715,-0.43,2270,6.305555555555555,
-0.715,-0.43,2271,6.308333333333334,
-0.715,-0.42,2272,6.311111111111111,
-0.715,-0.405,2273,6.313888888888889,
-0.715,-0.41,2274,6.316666666666666,
-0.7,-0.41,2275,6.319444444444445,
-0.675,-0.41,2276,6.322222222222222,
-0.685,-0.42,2277,6.325,
-0.69,-0.42,2278,6.3277777777777775,
-0.695,-0.435,2279,6.330555555555556,
-0.715,-0.44,2280,6.333333333333333,
-0.72,-0.445,2281,6.336111111111111,
-0.725,-0.445,2282,6.338888888888889,
-0.72,-0.44,2283,6.341666666666667,
-0.71,-0.425,2284,6.344444444444444,
-0.715,-0.425,2285,6.347222222222222,
-0.71,-0.4,2286,6.35,
-0.705,-0.395,2287,6.352777777777778,
-0.71,-0.41,2288,6.355555555555555,
-0.705,-0.425,2289,6.358333333333333,
-0.705,-0.435,2290,6.361111111111111,
-0.71,-0.435,2291,6.363888888888889,
-0.705,-0.445,2292,6.366666666666666,
-0.705,-0.435,2293,6.3694444444444445,
-0.71,-0.43,2294,6.372222222222222,
-0.705,-0.425,2295,6.375,
-0.7,-0.415,2296,6.377777777777778,
-0.695,-0.415,2297,6.3805555555555555,
-0.685,-0.405,2298,6.383333333333334,
-0.685,-0.395,2299,6.386111111111111,
-0.675,-0.41,2300,6.388888888888889,
-0.675,-0.425,2301,6.391666666666667,
-0.685,-0.41,2302,6.394444444444445,
-0.695,-0.425,2303,6.397222222222222,
-0.7,-0.435,2304,6.4,
-0.7,-0.44,2305,6.402777777777778,
-0.72,-0.435,2306,6.405555555555556,
-0.705,-0.425,2307,6.408333333333333,
-0.7,-0.42,2308,6.411111111111111,
-0.695,-0.42,2309,6.413888888888889,
-0.68,-0.42,2310,6.416666666666667,
-0.68,-0.405,2311,6.419444444444444,
-0.675,-0.4,2312,6.4222222222222225,
-0.675,-0.415,2313,6.425,
-0.695,-0.425,2314,6.427777777777778,
-0.695,-0.43,2315,6.430555555555555,
-0.705,-0.435,2316,6.433333333333334,
-0.72,-0.435,2317,6.436111111111111,
-0.72,-0.425,2318,6.438888888888889,
-0.715,-0.425,2319,6.441666666666666,
-0.725,-0.425,2320,6.444444444444445,
-0.7,-0.41,2321,6.447222222222222,
-0.705,-0.41,2322,6.45,
-0.695,-0.405,2323,6.4527777777777775,
-0.69,-0.405,2324,6.455555555555556,
-0.705,-0.41,2325,6.458333333333333,
-0.7,-0.42,2326,6.461111111111111,
-0.705,-0.425,2327,6.463888888888889,
-0.695,-0.43,2328,6.466666666666667,
-0.705,-0.43,2329,6.469444444444444,
-0.72,-0.44,2330,6.472222222222222,
-0.715,-0.44,2331,6.475,
-0.72,-0.42,2332,6.477777777777778,
-0.71,-0.405,2333,6.480555555555555,
-0.7,-0.41,2334,6.483333333333333,
-0.695,-0.4,2335,6.486111111111111,
-0.685,-0.415,2336,6.488888888888889,
-0.69,-0.4,2337,6.491666666666666,
-0.7,-0.42,2338,6.4944444444444445,
-0.7,-0.41,2339,6.497222222222222,
-0.71,-0.425,2340,6.5,
-0.73,-0.43,2341,6.502777777777778,
-0.735,-0.425,2342,6.5055555555555555,
-0.73,-0.415,2343,6.508333333333334,
-0.715,-0.41,2344,6.511111111111111,
-0.71,-0.405,2345,6.513888888888889,
-0.71,-0.415,2346,6.516666666666667,
-0.705,-0.405,2347,6.519444444444445,
-0.69,-0.41,2348,6.522222222222222,
-0.69,-0.415,2349,6.525,
-0.705,-0.42,2350,6.527777777777778,
-0.71,-0.44,2351,6.530555555555556,
-0.715,-0.43,2352,6.533333333333333,
-0.72,-0.43,2353,6.536111111111111,
-0.725,-0.435,2354,6.538888888888889,
-0.725,-0.425,2355,6.541666666666667,
-0.72,-0.415,2356,6.544444444444444,
-0.715,-0.425,2357,6.5472222222222225,
-0.71,-0.405,2358,6.55,
-0.71,-0.4,2359,6.552777777777778,
-0.71,-0.395,2360,6.555555555555555,
-0.7,-0.41,2361,6.558333333333334,
-0.705,-0.395,2362,6.561111111111111,
-0.705,-0.41,2363,6.563888888888889,
-0.7,-0.425,2364,6.566666666666666,
-0.7,-0.425,2365,6.569444444444445,
-0.705,-0.435,2366,6.572222222222222,
-0.705,-0.425,2367,6.575,
-0.695,-0.42,2368,6.5777777777777775,
-0.695,-0.42,2369,6.580555555555556,
-0.695,-0.405,2370,6.583333333333333,
-0.69,-0.39,2371,6.586111111111111,
-0.69,-0.405,2372,6.588888888888889,
-0.685,-0.4,2373,6.591666666666667,
-0.685,-0.405,2374,6.594444444444444,
-0.665,-0.405,2375,6.597222222222222,
-0.67,-0.41,2376,6.6,
-0.675,-0.425,2377,6.602777777777778,
-0.655,-0.43,2378,6.605555555555555,
-0.66,-0.435,2379,6.608333333333333,
-0.655,-0.425,2380,6.611111111111111,
-0.655,-0.41,2381,6.613888888888889,
-0.65,-0.4,2382,6.616666666666666,
-0.655,-0.39,2383,6.6194444444444445,
-0.65,-0.385,2384,6.622222222222222,
-0.665,-0.385,2385,6.625,
-0.67,-0.39,2386,6.627777777777778,
-0.69,-0.39,2387,6.6305555555555555,
-0.685,-0.41,2388,6.633333333333334,
-0.7,-0.425,2389,6.636111111111111,
-0.705,-0.415,2390,6.638888888888889,
-0.71,-0.405,2391,6.641666666666667,
-0.695,-0.39,2392,6.644444444444445,
-0.675,-0.375,2393,6.647222222222222,
-0.66,-0.34,2394,6.65,
-0.64,-0.335,2395,6.652777777777778,
-0.625,-0.32,2396,6.655555555555556,
-0.625,-0.34,2397,6.658333333333333,
-0.625,-0.36,2398,6.661111111111111,
-0.64,-0.365,2399,6.663888888888889,
-0.66,-0.375,2400,6.666666666666667,
-0.685,-0.385,2401,6.669444444444444,
-0.7,-0.4,2402,6.6722222222222225,
-0.72,-0.405,2403,6.675,
-0.74,-0.415,2404,6.677777777777778,
-0.74,-0.415,2405,6.680555555555555,
-0.74,-0.4,2406,6.683333333333334,
-0.745,-0.395,2407,6.686111111111111,
-0.73,-0.395,2408,6.688888888888889,
-0.73,-0.4,2409,6.691666666666666,
-0.73,-0.42,2410,6.694444444444445,
-0.745,-0.42,2411,6.697222222222222,
-0.75,-0.425,2412,6.7,
-0.755,-0.435,2413,6.7027777777777775,
-0.76,-0.44,2414,6.705555555555556,
-0.765,-0.45,2415,6.708333333333333,
-0.765,-0.45,2416,6.711111111111111,
-0.77,-0.455,2417,6.713888888888889,
-0.775,-0.47,2418,6.716666666666667,
-0.765,-0.45,2419,6.719444444444444,
-0.73,-0.38,2420,6.722222222222222,
-0.675,-0.27,2421,6.725,
-0.595,-0.16,2422,6.727777777777778,
-0.495,-0.08,2423,6.730555555555555,
-0.435,-0.025,2424,6.733333333333333,
-0.38,-0.05,2425,6.736111111111111,
-0.36,-0.16,2426,6.738888888888889,
-0.39,-0.335,2427,6.741666666666666,
-0.48,-0.6,2428,6.7444444444444445,
-0.615,-0.885,2429,6.747222222222222,
-0.725,-1.095,2430,6.75,
-0.79,-1.19,2431,6.752777777777778,
-0.74,-1.13,2432,6.7555555555555555,
-0.6,-0.945,2433,6.758333333333334,
-0.37,-0.72,2434,6.761111111111111,
-0.105,-0.485,2435,6.763888888888889,
0.17,-0.295,2436,6.766666666666667,
0.445,-0.16,2437,6.769444444444445,
0.69,-0.075,2438,6.772222222222222,
0.92,-0.035,2439,6.775,
1.12,-0.005,2440,6.777777777777778,
1.3,-0.01,2441,6.780555555555556,
1.395,-0.035,2442,6.783333333333333,
1.445,-0.085,2443,6.786111111111111,
1.43,-0.185,2444,6.788888888888889,R
1.35,-0.28,2445,6.791666666666667,
1.23,-0.35,2446,6.794444444444444,
1.03,-0.42,2447,6.7972222222222225,
0.79,-0.45,2448,6.8,
0.535,-0.435,2449,6.802777777777778,
0.295,-0.425,2450,6.805555555555555,
0.065,-0.385,2451,6.808333333333334,
-0.15,-0.36,2452,6.811111111111111,
-0.39,-0.355,2453,6.813888888888889,
-0.615,-0.4,2454,6.816666666666666,
-0.79,-0.44,2455,6.819444444444445,
-0.92,-0.48,2456,6.822222222222222,
-1.005,-0.505,2457,6.825,
-1.045,-0.495,2458,6.8277777777777775,
-1.055,-0.48,2459,6.830555555555556,
-1.04,-0.445,2460,6.833333333333333,
-1.02,-0.42,2461,6.836111111111111,
-1.005,-0.39,2462,6.838888888888889,
-0.99,-0.35,2463,6.841666666666667,
-0.965,-0.31,2464,6.844444444444444,
-0.94,-0.31,2465,6.847222222222222,
-0.915,-0.27,2466,6.85,
-0.9,-0.265,2467,6.852777777777778,
-0.9,-0.27,2468,6.855555555555555,
-0.9,-0.285,2469,6.858333333333333,
-0.905,-0.295,2470,6.861111111111111,
-0.915,-0.29,2471,6.863888888888889,
-0.91,-0.31,2472,6.866666666666666,
-0.92,-0.305,2473,6.8694444444444445,
-0.925,-0.305,2474,6.872222222222222,
-0.92,-0.305,2475,6.875,
-0.925,-0.285,2476,6.877777777777778,
-0.93,-0.285,2477,6.8805555555555555,
-0.905,-0.26,2478,6.883333333333334,
-0.91,-0.265,2479,6.886111111111111,
-0.895,-0.265,2480,6.888888888888889,
-0.9,-0.265,2481,6.891666666666667,
-0.905,-0.27,2482,6.894444444444445,
-0.91,-0.285,2483,6.897222222222222,
-0.915,-0.285,2484,6.9,
-0.93,-0.295,2485,6.902777777777778,
-0.92,-0.285,2486,6.905555555555556,
-0.94,-0.285,2487,6.908333333333333,
-0.925,-0.275,2488,6.911111111111111,
-0.93,-0.27,2489,6.913888888888889,
-0.93,-0.25,2490,6.916666666666667,
-0.93,-0.255,2491,6.919444444444444,
-0.91,-0.24,2492,6.9222222222222225,
-0.92,-0.255,2493,6.925,
-0.92,-0.26,2494,6.927777777777778,
-0.925,-0.27,2495,6.930555555555555,
-0.95,-0.275,2496,6.933333333333334,
-0.94,-0.27,2497,6.936111111111111,
-0.945,-0.27,2498,6.938888888888889,
-0.95,-0.27,2499,6.941666666666666,
-0.945,-0.245,2500,6.944444444444445,
-0.945,-0.255,2501,6.947222222222222,
-0.95,-0.25,2502,6.95,
-0.95,-0.255,2503,6.9527777777777775,
-0.93,-0.25,2504,6.955555555555556,
-0.935,-0.255,2505,6.958333333333333,
-0.945,-0.26,2506,6.961111111111111,
-0.955,-0.28,2507,6.963888888888889,
-0.965,-0.275,2508,6.966666666666667,
-0.975,-0.285,2509,6.969444444444444,
-0.98,-0.28,2510,6.972222222222222,
-1.005,-0.295,2511,6.975,
-1.0,-0.29,2512,6.977777777777778,
-1.0,-0.285,2513,6.980555555555555,
-0.975,-0.29,2514,6.983333333333333,
-0.97,-0.29,2515,6.986111111111111,
-0.975,-0.295,2516,6.988888888888889,
-0.975,-0.295,2517,6.991666666666666,
-0.99,-0.295,2518,6.9944444444444445,
-1.0,-0.31,2519,6.997222222222222,
-1.015,-0.325,2520,7.0,
-1.025,-0.335,2521,7.002777777777778,
-1.03,-0.35,2522,7.0055555555555555,
-1.045,-0.355,2523,7.008333333333334,
-1.04,-0.345,2524,7.011111111111111,
-1.04,-0.345,2525,7.013888888888889,
-1.03,-0.34,2526,7.016666666666667,
-1.03,-0.34,2527,7.019444444444445,
-1.03,-0.345,2528,7.022222222222222,
-1.03,-0.35,2529,7.025,
-1.05,-0.37,2530,7.027777777777778,
-1.055,-0.395,2531,7.030555555555556,
-1.07,-0.415,2532,7.033333333333333,
-1.08,-0.43,2533,7.036111111111111,
-1.09,-0.445,2534,7.038888888888889,
-1.095,-0.445,2535,7.041666666666667,
-1.1,-0.45,2536,7.044444444444444,
-1.09,-0.445,2537,7.0472222222222225,
-1.095,-0.435,2538,7.05,
-1.085,-0.43,2539,7.052777777777778,
-1.075,-0.445,2540,7.055555555555555,
-1.085,-0.45,2541,7.058333333333334,
-1.095,-0.465,2542,7.061111111111111,
-1.1,-0.465,2543,7.063888888888889,
-1.09,-0.49,2544,7.066666666666666,
-1.105,-0.5,2545,7.069444444444445,
-1.1,-0.51,2546,7.072222222222222,
-1.1,-0.52,2547,7.075,
-1.09,-0.53,2548,7.0777777777777775,
-1.09,-0.52,2549,7.080555555555556,
-1.065,-0.51,2550,7.083333333333333,
-1.05,-0.5,2551,7.086111111111111,
-1.04,-0.495,2552,7.088888888888889,
-1.025,-0.505,2553,7.091666666666667,
-1.015,-0.515,2554,7.094444444444444,
-1.005,-0.52,2555,7.097222222222222,
-1.0,-0.53,2556,7.1,
-0.995,-0.535,2557,7.102777777777778,
-0.99,-0.535,2558,7.105555555555555,
-0.975,-0.535,2559,7.108333333333333,
-0.96,-0.515,2560,7.111111111111111,
-0.945,-0.51,2561,7.113888888888889,
-0.92,-0.495,2562,7.116666666666666,
-0.895,-0.48,2563,7.1194444444444445,
-0.875,-0.48,2564,7.122222222222222,
-0.86,-0.485,2565,7.125,
-0.845,-0.49,2566,7.127777777777778,
-0.835,-0.495,2567,7.1305555555555555,
-0.83,-0.5,2568,7.133333333333334,
-0.825,-0.505,2569,7.136111111111111,
-0.81,-0.505,2570,7.138888888888889,
-0.805,-0.485,2571,7.141666666666667,
-0.795,-0.48,2572,7.144444444444445,
-0.775,-0.47,2573,7.147222222222222,
-0.78,-0.47,2574,7.15,
-0.77,-0.46,2575,7.152777777777778,
-0.75,-0.455,2576,7.155555555555556,
-0.745,-0.475,2577,7.158333333333333,
-0.74,-0.48,2578,7.161111111111111,
-0.745,-0.48,2579,7.163888888888889,
-0.75,-0.5,2580,7.166666666666667,
-0.745,-0.48,2581,7.169444444444444,
-0.745,-0.495,2582,7.1722222222222225,
-0.75,-0.48,2583,7.175,
-0.755,-0.485,2584,7.177777777777778,
-0.75,-0.465,2585,7.180555555555555,
-0.75,-0.465,2586,7.183333333333334,
-0.745,-0.47,2587,7.186111111111111,
-0.755,-0.46,2588,7.188888888888889,
-0.77,-0.48,2589,7.191666666666666,
-0.775,-0.48,2590,7.194444444444445,
-0.785,-0.49,2591,7.197222222222222,
-0.8,-0.505,2592,7.2,
-0.825,-0.51,2593,7.2027777777777775,
-0.835,-0.505,2594,7.205555555555556,
-0.85,-0.505,2595,7.208333333333333,
-0.865,-0.505,2596,7.211111111111111,
-0.87,-0.485,2597,7.213888888888889,
-0.875,-0.48,2598,7.216666666666667,
-0.88,-0.485,2599,7.219444444444444,
-0.88,-0.485,2600,7.222222222222222,
-0.895,-0.5,2601,7.225,
-0.9,-0.505,2602,7.227777777777778,
-0.91,-0.52,2603,7.230555555555555,
-0.915,-0.53,2604,7.233333333333333,
-0.935,-0.535,2605,7.236111111111111,
-0.935,-0.54,2606,7.238888888888889,
-0.955,-0.54,2607,7.241666666666666,
-0.97,-0.53,2608,7.2444444444444445,
-0.955,-0.53,2609,7.247222222222222,
-0.95,-0.515,2610,7.25,
-0.955,-0.505,2611,7.252777777777778,
-0.94,-0.525,2612,7.2555555555555555,
-0.945,-0.51,2613,7.258333333333334,
-0.95,-0.51,2614,7.261111111111111,
-0.965,-0.53,2615,7.263888888888889,
-0.98,-0.52,2616,7.266666666666667,
-0.975,-0.53,2617,7.269444444444445,
-0.98,-0.515,2618,7.272222222222222,
-0.98,-0.52,2619,7.275,
-0.975,-0.505,2620,7.277777777777778,
-0.975,-0.505,2621,7.280555555555556,
-0.95,-0.49,2622,7.283333333333333,
-0.935,-0.49,2623,7.286111111111111,
-0.935,-0.48,2624,7.288888888888889,
-0.94,-0.49,2625,7.291666666666667,
-0.94,-0.495,2626,7.294444444444444,
-0.93,-0.505,2627,7.2972222222222225,
-0.94,-0.515,2628,7.3,
-0.945,-0.515,2629,7.302777777777778,
-0.955,-0.505,2630,7.305555555555555,
-0.945,-0.495,2631,7.308333333333334,
-0.935,-0.475,2632,7.311111111111111,
-0.935,-0.485,2633,7.313888888888889,
-0.92,-0.485,2634,7.316666666666666,
-0.915,-0.465,2635,7.319444444444445,
-0.9,-0.46,2636,7.322222222222222,
-0.895,-0.47,2637,7.325,
-0.91,-0.455,2638,7.3277777777777775,
-0.925,-0.46,2639,7.330555555555556,
-0.925,-0.475,2640,7.333333333333333,
-0.91,-0.47,2641,7.336111111111111,
-0.915,-0.47,2642,7.338888888888889,
-0.905,-0.455,2643,7.341666666666667,
-0.895,-0.45,2644,7.344444444444444,
-0.9,-0.435,2645,7.347222222222222,
-0.89,-0.44,2646,7.35,
-0.88,-0.435,2647,7.352777777777778,
-0.875,-0.435,2648,7.355555555555555,
-0.875,-0.435,2649,7.358333333333333,
-0.875,-0.43,2650,7.361111111111111,
-0.885,-0.44,2651,7.363888888888889,
-0.88,-0.44,2652,7.366666666666666,
-0.885,-0.45,2653,7.3694444444444445,
-0.895,-0.445,2654,7.372222222222222,
-0.89,-0.435,2655,7.375,
-0.88,-0.43,2656,7.377777777777778,
-0.88,-0.435,2657,7.3805555555555555,
-0.865,-0.44,2658,7.383333333333334,
-0.86,-0.43,2659,7.386111111111111,
-0.855,-0.43,2660,7.388888888888889,
-0.865,-0.43,2661,7.391666666666667,
-0.865,-0.425,2662,7.394444444444445,
-0.875,-0.43,2663,7.397222222222222,
-0.87,-0.425,2664,7.4,
-0.88,-0.435,2665,7.402777777777778,
-0.885,-0.445,2666,7.405555555555556,
-0.88,-0.445,2667,7.408333333333333,
-0.875,-0.44,2668,7.411111111111111,
-0.87,-0.43,2669,7.413888888888889,
-0.855,-0.42,2670,7.416666666666667,
-0.865,-0.43,2671,7.419444444444444,
-0.86,-0.42,2672,7.4222222222222225,
-0.855,-0.42,2673,7.425,
-0.855,-0.415,2674,7.427777777777778,
-0.85,-0.425,2675,7.430555555555555,
-0.865,-0.425,2676,7.433333333333334,
-0.875,-0.44,2677,7.436111111111111,
-0.875,-0.455,2678,7.438888888888889,
-0.88,-0.45,2679,7.441666666666666,
-0.87,-0.435,2680,7.444444444444445,
-0.875,-0.435,2681,7.447222222222222,
-0.87,-0.43,2682,7.45,
-0.865,-0.41,2683,7.4527777777777775,
-0.84,-0.4,2684,7.455555555555556,
-0.84,-0.39,2685,7.458333333333333,
-0.845,-0.39,2686,7.461111111111111,
-0.855,-0.405,2687,7.463888888888889,
-0.865,-0.415,2688,7.466666666666667,
-0.88,-0.435,2689,7.469444444444444,
-0.875,-0.44,2690,7.472222222222222,
-0.885,-0.425,2691,7.475,
-0.875,-0.415,2692,7.477777777777778,
-0.86,-0.4,2693,7.480555555555555,
-0.86,-0.41,2694,7.483333333333333,
-0.855,-0.395,2695,7.486111111111111,
-0.84,-0.385,2696,7.488888888888889,
-0.835,-0.41,2697,7.491666666666666,
-0.835,-0.41,2698,7.4944444444444445,
-0.845,-0.41,2699,7.497222222222222,
-0.86,-0.435,2700,7.5,
-0.88,-0.445,2701,7.502777777777778,
-0.88,-0.44,2702,7.5055555555555555,
-0.88,-0.435,2703,7.508333333333334,
-0.865,-0.42,2704,7.511111111111111,
-0.855,-0.405,2705,7.513888888888889,
-0.845,-0.395,2706,7.516666666666667,
-0.835,-0.395,2707,7.519444444444445,
-0.83,-0.39,2708,7.522222222222222,
-0.82,-0.4,2709,7.525,
-0.835,-0.4,2710,7.527777777777778,
-0.85,-0.415,2711,7.530555555555556,
-0.845,-0.415,2712,7.533333333333333,
-0.85,-0.415,2713,7.536111111111111,
-0.865,-0.41,2714,7.538888888888889,
-0.865,-0.405,2715,7.541666666666667,
-0.86,-0.405,2716,7.544444444444444,
-0.86,-0.395,2717,7.5472222222222225,
-0.855,-0.385,2718,7.55,
-0.84,-0.385,2719,7.552777777777778,
-0.84,-0.38,2720,7.555555555555555,
-0.845,-0.395,2721,7.558333333333334,
-0.845,-0.415,2722,7.561111111111111,
-0.855,-0.415,2723,7.563888888888889,
-0.865,-0.42,2724,7.566666666666666,
-0.87,-0.425,2725,7.569444444444445,
-0.87,-0.415,2726,7.572222222222222,
-0.885,-0.405,2727,7.575,
-0.87,-0.395,2728,7.5777777777777775,
-0.865,-0.39,2729,7.580555555555556,
-0.845,-0.385,2730,7.583333333333333,
-0.83,-0.38,2731,7.586111111111111,
-0.825,-0.38,2732,7.588888888888889,
-0.825,-0.38,2733,7.591666666666667,
-0.835,-0.38,2734,7.594444444444444,
-0.835,-0.385,2735,7.597222222222222,
-0.85,-0.4,2736,7.6,
-0.855,-0.395,2737,7.602777777777778,
-0.85,-0.41,2738,7.605555555555555,
-0.85,-0.415,2739,7.608333333333333,
-0.855,-0.395,2740,7.611111111111111,
-0.85,-0.395,2741,7.613888888888889,
-0.835,-0.395,2742,7.616666666666666,
-0.835,-0.4,2743,7.6194444444444445,
-0.84,-0.4,2744,7.622222222222222,
-0.835,-0.395,2745,7.625,
-0.83,-0.38,2746,7.627777777777778,
-0.825,-0.385,2747,7.6305555555555555,
-0.835,-0.38,2748,7.633333333333334,
-0.845,-0.405,2749,7.636111111111111,
-0.85,-0.405,2750,7.638888888888889,
-0.865,-0.395,2751,7.641666666666667,
-0.86,-0.405,2752,7.644444444444445,
-0.85,-0.4,2753,7.647222222222222,
-0.835,-0.395,2754,7.65,
-0.845,-0.38,2755,7.652777777777778,
-0.825,-0.37,2756,7.655555555555556,
-0.825,-0.39,2757,7.658333333333333,
-0.82,-0.36,2758,7.661111111111111,
-0.825,-0.38,2759,7.663888888888889,
-0.84,-0.39,2760,7.666666666666667,
-0.845,-0.385,2761,7.669444444444444,
-0.86,-0.39,2762,7.6722222222222225,
-0.855,-0.405,2763,7.675,
-0.855,-0.395,2764,7.677777777777778,
-0.855,-0.385,2765,7.680555555555555,
-0.845,-0.37,2766,7.683333333333334,
-0.845,-0.365,2767,7.686111111111111,
-0.83,-0.36,2768,7.688888888888889,
-0.825,-0.37,2769,7.691666666666666,
-0.83,-0.38,2770,7.694444444444445,
-0.835,-0.385,2771,7.697222222222222,
-0.835,-0.4,2772,7.7,
-0.85,-0.405,2773,7.7027777777777775,
-0.855,-0.4,2774,7.705555555555556,
-0.86,-0.39,2775,7.708333333333333,
-0.855,-0.375,2776,7.711111111111111,
-0.845,-0.365,2777,7.713888888888889,
-0.83,-0.355,2778,7.716666666666667,
-0.83,-0.35,2779,7.719444444444444,
-0.82,-0.355,2780,7.722222222222222,
-0.83,-0.365,2781,7.725,
-0.83,-0.36,2782,7.727777777777778,
-0.825,-0.37,2783,7.730555555555555,
-0.83,-0.38,2784,7.733333333333333,
-0.845,-0.385,2785,7.736111111111111,
-0.85,-0.39,2786,7.738888888888889,
-0.86,-0.38,2787,7.741666666666666,
-0.865,-0.385,2788,7.7444444444444445,
-0.845,-0.355,2789,7.747222222222222,
-0.845,-0.345,2790,7.75,
-0.825,-0.355,2791,7.752777777777778,
-0.805,-0.36,2792,7.7555555555555555,
-0.815,-0.37,2793,7.758333333333334,
-0.82,-0.375,2794,7.761111111111111,
-0.825,-0.38,2795,7.763888888888889,
-0.83,-0.39,2796,7.766666666666667,
-0.83,-0.385,2797,7.769444444444445,
-0.84,-0.4,2798,7.772222222222222,
-0.84,-0.39,2799,7.775,
-0.835,-0.385,2800,7.777777777777778,
-0.83,-0.39,2801,7.780555555555556,
-0.825,-0.375,2802,7.783333333333333,
-0.82,-0.37,2803,7.786111111111111,
-0.8,-0.37,2804,7.788888888888889,
-0.795,-0.375,2805,7.791666666666667,
-0.8,-0.385,2806,7.794444444444444,
-0.805,-0.39,2807,7.7972222222222225,
-0.82,-0.405,2808,7.8,
-0.825,-0.41,2809,7.802777777777778,
-0.835,-0.405,2810,7.805555555555555,
-0.84,-0.39,2811,7.808333333333334,
-0.835,-0.385,2812,7.811111111111111,
-0.825,-0.38,2813,7.813888888888889,
-0.81,-0.38,2814,7.816666666666666,
-0.795,-0.375,2815,7.819444444444445,
-0.765,-0.36,2816,7.822222222222222,
-0.76,-0.37,2817,7.825,
-0.755,-0.375,2818,7.8277777777777775,
-0.765,-0.385,2819,7.830555555555556,
-0.77,-0.385,2820,7.833333333333333,
-0.775,-0.39,2821,7.836111111111111,
-0.795,-0.39,2822,7.838888888888889,
-0.81,-0.39,2823,7.841666666666667,
-0.82,-0.375,2824,7.844444444444444,
-0.81,-0.38,2825,7.847222222222222,
-0.8,-0.355,2826,7.85,
-0.79,-0.35,2827,7.852777777777778,
-0.78,-0.335,2828,7.855555555555555,
-0.795,-0.335,2829,7.858333333333333,
-0.8,-0.335,2830,7.861111111111111,
-0.78,-0.33,2831,7.863888888888889,
-0.775,-0.345,2832,7.866666666666666,
-0.785,-0.345,2833,7.8694444444444445,
-0.775,-0.355,2834,7.872222222222222,
-0.775,-0.36,2835,7.875,
-0.78,-0.37,2836,7.877777777777778,
-0.79,-0.355,2837,7.8805555555555555,
-0.795,-0.365,2838,7.883333333333334,
-0.815,-0.365,2839,7.886111111111111,
-0.83,-0.365,2840,7.888888888888889,
-0.845,-0.39,2841,7.891666666666667,
-0.855,-0.405,2842,7.894444444444445,
-0.87,-0.43,2843,7.897222222222222,
-0.87,-0.43,2844,7.9,
-0.875,-0.42,2845,7.902777777777778,
-0.88,-0.44,2846,7.905555555555556,
-0.89,-0.42,2847,7.908333333333333,
-0.895,-0.42,2848,7.911111111111111,
-0.885,-0.415,2849,7.913888888888889,
-0.875,-0.415,2850,7.916666666666667,
-0.865,-0.405,2851,7.919444444444444,
-0.86,-0.425,2852,7.9222222222222225,
-0.875,-0.425,2853,7.925,
-0.875,-0.44,2854,7.927777777777778,
-0.885,-0.47,2855,7.930555555555555,
-0.9,-0.485,2856,7.933333333333334,
-0.91,-0.485,2857,7.936111111111111,
-0.89,-0.44,2858,7.938888888888889,
-0.85,-0.35,2859,7.941666666666666,
-0.78,-0.23,2860,7.944444444444445,
-0.68,-0.11,2861,7.947222222222222,
-0.58,-0.02,2862,7.95,
-0.5,0.035,2863,7.9527777777777775,
-0.445,0.035,2864,7.955555555555556,
-0.42,-0.03,2865,7.958333333333333,
-0.435,-0.19,2866,7.961111111111111,
-0.505,-0.42,2867,7.963888888888889,
-0.64,-0.7,2868,7.966666666666667,
-0.795,-0.975,2869,7.969444444444444,
-0.955,-1.195,2870,7.972222222222222,
-1.04,-1.31,2871,7.975,
-1.04,-1.28,2872,7.977777777777778,
-0.91,-1.16,2873,7.980555555555555,
-0.72,-0.98,2874,7.983333333333333,
-0.47,-0.805,2875,7.986111111111111,
-0.215,-0.635,2876,7.988888888888889,
0.0,-0.52,2877,7.991666666666666,
0.19,-0.435,2878,7.9944444444444445,
0.39,-0.395,2879,7.997222222222222,
0.565,-0.365,2880,8.0,
0.73,-0.355,2881,8.002777777777778,
0.855,-0.345,2882,8.005555555555556,
0.965,-0.355,2883,8.008333333333333,
1.015,-0.375,2884,8.011111111111111,
1.01,-0.41,2885,8.01388888888889,R
0.97,-0.425,2886,8.016666666666667,
0.91,-0.42,2887,8.019444444444444,
0.81,-0.395,2888,8.022222222222222,
0.655,-0.385,2889,8.025,
0.47,-0.38,2890,8.027777777777779,
0.285,-0.37,2891,8.030555555555555,
0.085,-0.36,2892,8.033333333333333,
-0.1,-0.36,2893,8.036111111111111,
-0.295,-0.37,2894,8.03888888888889,
-0.515,-0.4,2895,8.041666666666666,
-0.73,-0.43,2896,8.044444444444444,
-0.885,-0.455,2897,8.047222222222222,
-0.99,-0.48,2898,8.05,
-1.07,-0.49,2899,8.052777777777777,
-1.1,-0.47,2900,8.055555555555555,
-1.105,-0.445,2901,8.058333333333334,
-1.095,-0.42,2902,8.061111111111112,
-1.075,-0.39,2903,8.063888888888888,
-1.05,-0.365,2904,8.066666666666666,
-1.03,-0.345,2905,8.069444444444445,
-1.025,-0.335,2906,8.072222222222223,
-1.015,-0.32,2907,8.075,
-1.01,-0.31,2908,8.077777777777778,
-1.005,-0.28,2909,8.080555555555556,
-0.99,-0.265,2910,8.083333333333334,
-0.975,-0.26,2911,8.08611111111111,
-0.97,-0.27,2912,8.088888888888889,
-0.96,-0.265,2913,8.091666666666667,
-0.975,-0.275,2914,8.094444444444445,
-0.985,-0.285,2915,8.097222222222221,
-1.005,-0.295,2916,8.1,
-1.005,-0.295,2917,8.102777777777778,
-1.01,-0.3,2918,8.105555555555556,
-1.0,-0.295,2919,8.108333333333333,
-1.0,-0.295,2920,8.11111111111111,
-1.0,-0.28,2921,8.113888888888889,
-0.99,-0.28,2922,8.116666666666667,
-0.985,-0.27,2923,8.119444444444444,
-0.98,-0.26,2924,8.122222222222222,
-0.985,-0.25,2925,8.125,
-0.98,-0.265,2926,8.127777777777778,
-0.99,-0.275,2927,8.130555555555556,
-1.0,-0.28,2928,8.133333333333333,
-1.005,-0.295,2929,8.136111111111111,
-1.01,-0.295,2930,8.13888888888889,
-1.01,-0.3,2931,8.141666666666667,
-1.02,-0.28,2932,8.144444444444444,
-1.025,-0.27,2933,8.147222222222222,
-1.0,-0.26,2934,8.15,
-1.02,-0.255,2935,8.152777777777779,
-1.01,-0.245,2936,8.155555555555555,
-0.99,-0.245,2937,8.158333333333333,
-1.0,-0.265,2938,8.161111111111111,
-1.005,-0.28,2939,8.16388888888889,
-1.025,-0.29,2940,8.166666666666666,
-1.02,-0.295,2941,8.169444444444444,
-1.04,-0.285,2942,8.172222222222222,
-1.06,-0.285,2943,8.175,
-1.035,-0.28,2944,8.177777777777777,
-1.045,-0.27,2945,8.180555555555555,
-1.045,-0.27,2946,8.183333333333334,
-1.045,-0.28,2947,8.186111111111112,
-1.03,-0.28,2948,8.188888888888888,
-1.035,-0.285,2949,8.191666666666666,
-1.03,-0.275,2950,8.194444444444445,
-1.025,-0.29,2951,8.197222222222223,
-1.045,-0.295,2952,8.2,
-1.05,-0.305,2953,8.202777777777778,
-1.07,-0.315,2954,8.205555555555556,
-1.07,-0.31,2955,8.208333333333334,
-1.075,-0.295,2956,8.21111111111111,
-1.08,-0.29,2957,8.213888888888889,
-1.07,-0.29,2958,8.216666666666667,
-1.08,-0.285,2959,8.219444444444445,
-1.07,-0.275,2960,8.222222222222221,
-1.08,-0.3,2961,8.225,
-1.08,-0.32,2962,8.227777777777778,
-1.09,-0.335,2963,8.230555555555556,
-1.1,-0.34,2964,8.233333333333333,
-1.11,-0.345,2965,8.23611111111111,
-1.125,-0.355,2966,8.238888888888889,
-1.13,-0.355,2967,8.241666666666667,
-1.135,-0.355,2968,8.244444444444444,
-1.125,-0.34,2969,8.247222222222222,
-1.14,-0.35,2970,8.25,
-1.15,-0.355,2971,8.252777777777778,
-1.145,-0.385,2972,8.255555555555556,
-1.14,-0.38,2973,8.258333333333333,
-1.145,-0.395,2974,8.261111111111111,
-1.155,-0.41,2975,8.26388888888889,
-1.165,-0.43,2976,8.266666666666667,
-1.17,-0.44,2977,8.269444444444444,
-1.185,-0.455,2978,8.272222222222222,
-1.19,-0.47,2979,8.275,
-1.19,-0.46,2980,8.277777777777779,
-1.2,-0.465,2981,8.280555555555555,
-1.195,-0.47,2982,8.283333333333333,
-1.19,-0.475,2983,8.286111111111111,
-1.195,-0.485,2984,8.28888888888889,
-1.2,-0.5,2985,8.291666666666666,
-1.2,-0.515,2986,8.294444444444444,
-1.2,-0.54,2987,8.297222222222222,
-1.21,-0.545,2988,8.3,
-1.225,-0.57,2989,8.302777777777777,
-1.22,-0.565,2990,8.305555555555555,
-1.225,-0.58,2991,8.308333333333334,
-1.225,-0.58,2992,8.311111111111112,
-1.215,-0.58,2993,8.313888888888888,
-1.205,-0.59,2994,8.316666666666666,
-1.19,-0.595,2995,8.319444444444445,
-1.185,-0.6,2996,8.322222222222223,
-1.17,-0.6,2997,8.325,
-1.175,-0.62,2998,8.327777777777778,
-1.17,-0.64,2999,8.330555555555556,
-1.165,-0.645,3000,8.333333333333334,
-1.165,-0.655,3001,8.33611111111111,
-1.155,-0.65,3002,8.338888888888889,
-1.14,-0.65,3003,8.341666666666667,
-1.125,-0.64,3004,8.344444444444445,
-1.11,-0.65,3005,8.347222222222221,
-1.095,-0.64,3006,8.35,
-1.08,-0.64,3007,8.352777777777778,
-1.045,-0.63,3008,8.355555555555556,
-1.03,-0.64,3009,8.358333333333333,
-1.02,-0.64,3010,8.36111111111111,
-1.01,-0.655,3011,8.363888888888889,
-1.0,-0.665,3012,8.366666666666667,
-0.985,-0.655,3013,8.369444444444444,
-0.975,-0.66,3014,8.372222222222222,
-0.96,-0.655,3015,8.375,
-0.94,-0.66,3016,8.377777777777778,
-0.93,-0.63,3017,8.380555555555556,
-0.905,-0.625,3018,8.383333333333333,
-0.905,-0.62,3019,8.386111111111111,
-0.885,-0.605,3020,8.38888888888889,
-0.88,-0.61,3021,8.391666666666667,
-0.86,-0.61,3022,8.394444444444444,
-0.855,-0.605,3023,8.397222222222222,
-0.855,-0.62,3024,8.4,
-0.86,-0.62,3025,8.402777777777779,
-0.855,-0.61,3026,8.405555555555555,
-0.85,-0.605,3027,8.408333333333333,
-0.85,-0.595,3028,8.411111111111111,
-0.85,-0.58,3029,8.41388888888889,
-0.84,-0.57,3030,8.416666666666666,
-0.84,-0.555,3031,8.419444444444444,
-0.82,-0.555,3032,8.422222222222222,
-0.84,-0.57,3033,8.425,
-0.845,-0.57,3034,8.427777777777777,
-0.865,-0.58,3035,8.430555555555555,
-0.88,-0.575,3036,8.433333333333334,
-0.89,-0.585,3037,8.436111111111112,
-0.905,-0.6,3038,8.438888888888888,
-0.915,-0.585,3039,8.441666666666666,
-0.925,-0.585,3040,8.444444444444445,
-0.925,-0.565,3041,8.447222222222223,
-0.93,-0.56,3042,8.45,
-0.935,-0.55,3043,8.452777777777778,
-0.94,-0.545,3044,8.455555555555556,
-0.95,-0.55,3045,8.458333333333334,
-0.97,-0.565,3046,8.46111111111111,
-0.975,-0.565,3047,8.463888888888889,
-0.99,-0.585,3048,8.466666666666667,
-1.0,-0.575,3049,8.469444444444445,
-1.025,-0.58,3050,8.472222222222221,
-1.02,-0.575,3051,8.475,
-1.02,-0.57,3052,8.477777777777778,
-1.025,-0.555,3053,8.480555555555556,
-1.02,-0.56,3054,8.483333333333333,
-1.015,-0.555,3055,8.48611111111111,
-1.005,-0.55,3056,8.488888888888889,
-1.015,-0.55,3057,8.491666666666667,
-1.025,-0.545,3058,8.494444444444444,
-1.025,-0.57,3059,8.497222222222222,
-1.035,-0.585,3060,8.5,
-1.04,-0.585,3061,8.502777777777778,
-1.045,-0.57,3062,8.505555555555556,
-1.045,-0.58,3063,8.508333333333333,
-1.05,-0.565,3064,8.511111111111111,
-1.045,-0.555,3065,8.51388888888889,
-1.025,-0.57,3066,8.516666666666667,
-1.025,-0.56,3067,8.519444444444444,
-1.015,-0.555,3068,8.522222222222222,
-1.02,-0.555,3069,8.525,
-1.02,-0.555,3070,8.527777777777779,
-1.02,-0.575,3071,8.530555555555555,
-1.01,-0.57,3072,8.533333333333333,
-1.025,-0.575,3073,8.536111111111111,
-1.025,-0.57,3074,8.53888888888889,
-1.025,-0.56,3075,8.541666666666666,
-1.02,-0.555,3076,8.544444444444444,
-1.01,-0.545,3077,8.547222222222222,
-1.005,-0.535,3078,8.55,
-0.99,-0.54,3079,8.552777777777777,
-0.98,-0.53,3080,8.555555555555555,
-0.98,-0.515,3081,8.558333333333334,
-0.985,-0.52,3082,8.561111111111112,
-0.995,-0.54,3083,8.563888888888888,
-1.005,-0.53,3084,8.566666666666666,
-0.995,-0.535,3085,8.569444444444445,
-1.01,-0.545,3086,8.572222222222223,
-0.99,-0.54,3087,8.575,
-0.99,-0.535,3088,8.577777777777778,
-1.0,-0.525,3089,8.580555555555556,
-0.985,-0.53,3090,8.583333333333334,
-0.99,-0.53,3091,8.58611111111111,
-0.975,-0.515,3092,8.588888888888889,
-0.97,-0.52,3093,8.591666666666667,
-0.975,-0.515,3094,8.594444444444445,
-0.98,-0.52,3095,8.597222222222221,
-0.98,-0.535,3096,8.6,
-0.985,-0.54,3097,8.602777777777778,
-0.985,-0.55,3098,8.605555555555556,
-0.99,-0.545,3099,8.608333333333333,
-0.995,-0.53,3100,8.61111111111111,
-0.98,-0.535,3101,8.613888888888889,
-0.975,-0.52,3102,8.616666666666667,
-0.965,-0.51,3103,8.619444444444444,
-0.96,-0.505,3104,8.622222222222222,
-0.96,-0.51,3105,8.625,
-0.965,-0.505,3106,8.627777777777778,
-0.97,-0.525,3107,8.630555555555556,
-0.98,-0.54,3108,8.633333333333333,
-0.985,-0.55,3109,8.636111111111111,
-0.995,-0.55,3110,8.63888888888889,
-0.995,-0.545,3111,8.641666666666667,
-1.0,-0.535,3112,8.644444444444444,
-0.98,-0.525,3113,8.647222222222222,
-0.97,-0.53,3114,8.65,
-0.965,-0.52,3115,8.652777777777779,
-0.955,-0.51,3116,8.655555555555555,
-0.95,-0.515,3117,8.658333333333333,
-0.97,-0.52,3118,8.661111111111111,
-0.975,-0.53,3119,8.66388888888889,
-0.97,-0.535,3120,8.666666666666666,
-1.0,-0.54,3121,8.669444444444444,
-0.985,-0.555,3122,8.672222222222222,
-0.985,-0.55,3123,8.675,
-0.99,-0.545,3124,8.677777777777777,
-0.985,-0.53,3125,8.680555555555555,
-0.97,-0.52,3126,8.683333333333334,
-0.965,-0.51,3127,8.686111111111112,
-0.95,-0.515,3128,8.688888888888888,
-0.96,-0.515,3129,8.691666666666666,
-0.955,-0.535,3130,8.694444444444445,
-0.965,-0.53,3131,8.697222222222223,
-0.97,-0.54,3132,8.7,
-0.985,-0.545,3133,8.702777777777778,
-0.985,-0.54,3134,8.705555555555556,
-0.98,-0.55,3135,8.708333333333334,
-0.995,-0.54,3136,8.71111111111111,
-0.97,-0.53,3137,8.713888888888889,
-0.96,-0.54,3138,8.716666666666667,
-0.96,-0.515,3139,8.719444444444445,
-0.96,-0.52,3140,8.722222222222221,
-0.965,-0.515,3141,8.725,
-0.98,-0.535,3142,8.727777777777778,
-0.975,-0.535,3143,8.730555555555556,
-0.975,-0.545,3144,8.733333333333333,
-0.98,-0.56,3145,8.73611111111111,
-0.98,-0.555,3146,8.738888888888889,
-0.98,-0.545,3147,8.741666666666667,
-0.975,-0.54,3148,8.744444444444444,
-0.985,-0.535,3149,8.747222222222222,
-0.98,-0.53,3150,8.75,
-0.97,-0.53,3151,8.752777777777778,
-0.965,-0.53,3152,8.755555555555556,
-0.955,-0.525,3153,8.758333333333333,
-0.96,-0.53,3154,8.761111111111111,
-0.97,-0.545,3155,8.76388888888889,
-0.975,-0.54,3156,8.766666666666667,
-0.98,-0.555,3157,8.769444444444444,
-0.98,-0.56,3158,8.772222222222222,
-0.98,-0.55,3159,8.775,
-0.98,-0.54,3160,8.777777777777779,
-0.98,-0.545,3161,8.780555555555555,
-0.97,-0.545,3162,8.783333333333333,
-0.965,-0.53,3163,8.786111111111111,
-0.96,-0.535,3164,8.78888888888889,
-0.96,-0.545,3165,8.791666666666666,
-0.96,-0.555,3166,8.794444444444444,
-0.97,-0.545,3167,8.797222222222222,
-0.975,-0.555,3168,8.8,
-0.975,-0.56,3169,8.802777777777777,
-0.985,-0.56,3170,8.805555555555555,
-0.995,-0.565,3171,8.808333333333334,
-0.98,-0.555,3172,8.811111111111112,
-0.975,-0.555,3173,8.813888888888888,
-0.985,-0.54,3174,8.816666666666666,
-0.975,-0.54,3175,8.819444444444445,
-0.965,-0.54,3176,8.822222222222223,
-0.96,-0.54,3177,8.825,
-0.965,-0.55,3178,8.827777777777778,
-0.98,-0.555,3179,8.830555555555556,
-0.975,-0.55,3180,8.833333333333334,
-0.99,-0.56,3181,8.83611111111111,
-1.0,-0.565,3182,8.838888888888889,
-1.0,-0.565,3183,8.841666666666667,
-0.97,-0.57,3184,8.844444444444445,
-0.975,-0.56,3185,8.847222222222221,
-0.975,-0.545,3186,8.85,
-0.955,-0.54,3187,8.852777777777778,
-0.96,-0.525,3188,8.855555555555556,
-0.955,-0.53,3189,8.858333333333333,
-0.97,-0.53,3190,8.86111111111111,
-0.975,-0.545,3191,8.863888888888889,
-0.985,-0.53,3192,8.866666666666667,
-0.995,-0.555,3193,8.869444444444444,
-0.995,-0.56,3194,8.872222222222222,
-0.995,-0.57,3195,8.875,
-1.005,-0.56,3196,8.877777777777778,
-0.985,-0.545,3197,8.880555555555556,
-0.98,-0.53,3198,8.883333333333333,
-0.975,-0.535,3199,8.886111111111111,
-0.955,-0.52,3200,8.88888888888889,
-0.95,-0.525,3201,8.891666666666667,
-0.97,-0.545,3202,8.894444444444444,
-0.97,-0.55,3203,8.897222222222222,
-0.97,-0.55,3204,8.9,
-0.98,-0.56,3205,8.902777777777779,
-0.985,-0.565,3206,8.905555555555555,
-0.98,-0.565,3207,8.908333333333333,
-0.99,-0.55,3208,8.911111111111111,
-0.97,-0.535,3209,8.91388888888889,
-0.965,-0.535,3210,8.916666666666666,
-0.96,-0.525,3211,8.919444444444444,
-0.95,-0.525,3212,8.922222222222222,
-0.955,-0.535,3213,8.925,
-0.955,-0.535,3214,8.927777777777777,
-0.96,-0.545,3215,8.930555555555555,
-0.97,-0.555,3216,8.933333333333334,
-0.975,-0.555,3217,8.936111111111112,
-0.985,-0.555,3218,8.938888888888888,
-0.985,-0.55,3219,8.941666666666666,
-0.97,-0.555,3220,8.944444444444445,
-0.97,-0.54,3221,8.947222222222223,
-0.97,-0.53,3222,8.95,
-0.955,-0.52,3223,8.952777777777778,
-0.945,-0.53,3224,8.955555555555556,
-0.94,-0.54,3225,8.958333333333334,
-0.945,-0.555,3226,8.96111111111111,
-0.95,-0.555,3227,8.963888888888889,
-0.95,-0.56,3228,8.966666666666667,
-0.965,-0.565,3229,8.969444444444445,
-0.96,-0.565,3230,8.972222222222221,
-0.965,-0.56,3231,8.975,
-0.95,-0.55,3232,8.977777777777778,
-0.96,-0.555,3233,8.980555555555556,
-0.96,-0.545,3234,8.983333333333333,
-0.95,-0.545,3235,8.98611111111111,
-0.935,-0.53,3236,8.988888888888889,
-0.925,-0.535,3237,8.991666666666667,
-0.92,-0.525,3238,8.994444444444444,
-0.925,-0.535,3239,8.997222222222222,
-0.92,-0.535,3240,9.0,
-0.915,-0.535,3241,9.002777777777778,
-0.915,-0.54,3242,9.005555555555556,
-0.91,-0.545,3243,9.008333333333333,
-0.91,-0.53,3244,9.011111111111111,
-0.905,-0.54,3245,9.01388888888889,
-0.905,-0.535,3246,9.016666666666667,
-0.905,-0.53,3247,9.019444444444444,
-0.9,-0.525,3248,9.022222222222222,
-0.9,-0.535,3249,9.025,
-0.91,-0.535,3250,9.027777777777779,
-0.93,-0.54,3251,9.030555555555555,
-0.94,-0.54,3252,9.033333333333333,
-0.94,-0.54,3253,9.036111111111111,
-0.955,-0.53,3254,9.03888888888889,
-0.96,-0.535,3255,9.041666666666666,
-0.945,-0.535,3256,9.044444444444444,
-0.935,-0.51,3257,9.047222222222222,
-0.915,-0.495,3258,9.05,
-0.9,-0.485,3259,9.052777777777777,
-0.87,-0.485,3260,9.055555555555555,
-0.865,-0.47,3261,9.058333333333334,
-0.87,-0.49,3262,9.061111111111112,
-0.89,-0.49,3263,9.063888888888888,
-0.89,-0.52,3264,9.066666666666666,
-0.91,-0.52,3265,9.069444444444445,
-0.94,-0.55,3266,9.072222222222223,
-0.965,-0.555,3267,9.075,
-0.98,-0.555,3268,9.077777777777778,
-0.985,-0.55,3269,9.080555555555556,
-0.99,-0.57,3270,9.083333333333334,
-1.0,-0.56,3271,9.08611111111111,
-0.985,-0.555,3272,9.088888888888889,
-0.985,-0.565,3273,9.091666666666667,
-0.995,-0.565,3274,9.094444444444445,
-0.98,-0.57,3275,9.097222222222221,
-0.995,-0.57,3276,9.1,
-0.99,-0.595,3277,9.102777777777778,
-0.995,-0.595,3278,9.105555555555556,
-1.01,-0.615,3279,9.108333333333333,
-1.015,-0.625,3280,9.11111111111111,
-1.025,-0.63,3281,9.113888888888889,
-1.025,-0.61,3282,9.116666666666667,
-1.005,-0.56,3283,9.119444444444444,
-0.95,-0.455,3284,9.122222222222222,
-0.88,-0.35,3285,9.125,
-0.77,-0.25,3286,9.127777777777778,
-0.69,-0.19,3287,9.130555555555556,
-0.635,-0.19,3288,9.133333333333333,
-0.59,-0.25,3289,9.136111111111111,
-0.605,-0.41,3290,9.13888888888889,
-0.655,-0.655,3291,9.141666666666667,
-0.79,-0.945,3292,9.144444444444444,
-0.93,-1.185,3293,9.147222222222222,
-1.015,-1.31,3294,9.15,
-1.01,-1.275,3295,9.152777777777779,
-0.88,-1.125,3296,9.155555555555555,
-0.665,-0.89,3297,9.158333333333333,
-0.39,-0.665,3298,9.161111111111111,
-0.105,-0.465,3299,9.16388888888889,
0.165,-0.33,3300,9.166666666666666,
0.435,-0.225,3301,9.169444444444444,
0.66,-0.19,3302,9.172222222222222,
0.855,-0.16,3303,9.175,
1.035,-0.15,3304,9.177777777777777,
1.165,-0.16,3305,9.180555555555555,
1.25,-0.2,3306,9.183333333333334,
1.26,-0.29,3307,9.186111111111112,R
1.21,-0.385,3308,9.188888888888888,
1.115,-0.48,3309,9.191666666666666,
0.955,-0.535,3310,9.194444444444445,
0.75,-0.585,3311,9.197222222222223,
0.51,-0.595,3312,9.2,
0.26,-0.58,3313,9.202777777777778,
0.015,-0.55,3314,9.205555555555556,
-0.22,-0.51,3315,9.208333333333334,
-0.44,-0.495,3316,9.21111111111111,
-0.66,-0.515,3317,9.213888888888889,
-0.85,-0.54,3318,9.216666666666667,
-1.005,-0.6,3319,9.219444444444445,
-1.125,-0.64,3320,9.222222222222221,
-1.205,-0.645,3321,9.225,
-1.245,-0.65,3322,9.227777777777778,
-1.25,-0.61,3323,9.230555555555556,
-1.255,-0.6,3324,9.233333333333333,
-1.25,-0.565,3325,9.23611111111111,
-1.225,-0.53,3326,9.238888888888889,
-1.205,-0.515,3327,9.241666666666667,
-1.185,-0.495,3328,9.244444444444444,
-1.165,-0.47,3329,9.247222222222222,
-1.145,-0.445,3330,9.25,
-1.125,-0.435,3331,9.252777777777778,
-1.11,-0.415,3332,9.255555555555556,
-1.1,-0.415,3333,9.258333333333333,
-1.105,-0.42,3334,9.261111111111111,
-1.115,-0.42,3335,9.26388888888889,
-1.13,-0.425,3336,9.266666666666667,
-1.15,-0.425,3337,9.269444444444444,
-1.15,-0.425,3338,9.272222222222222,
-1.155,-0.43,3339,9.275,
-1.145,-0.41,3340,9.277777777777779,
-1.14,-0.405,3341,9.280555555555555,
-1.135,-0.405,3342,9.283333333333333,
-1.14,-0.4,3343,9.286111111111111,
-1.13,-0.38,3344,9.28888888888889,
-1.12,-0.395,3345,9.291666666666666,
-1.115,-0.39,3346,9.294444444444444,
-1.125,-0.395,3347,9.297222222222222,
-1.14,-0.405,3348,9.3,
-1.135,-0.405,3349,9.302777777777777,
-1.16,-0.405,3350,9.305555555555555,
-1.165,-0.41,3351,9.308333333333334,
-1.17,-0.4,3352,9.311111111111112,
-1.15,-0.4,3353,9.313888888888888,
-1.15,-0.375,3354,9.316666666666666,
-1.14,-0.375,3355,9.319444444444445,
-1.13,-0.365,3356,9.322222222222223,
-1.135,-0.37,3357,9.325,
-1.14,-0.375,3358,9.327777777777778,
-1.14,-0.39,3359,9.330555555555556,
-1.155,-0.405,3360,9.333333333333334,
-1.165,-0.415,3361,9.33611111111111,
-1.17,-0.42,3362,9.338888888888889,
-1.175,-0.41,3363,9.341666666666667,
-1.175,-0.405,3364,9.344444444444445,
-1.175,-0.39,3365,9.347222222222221,
-1.17,-0.395,3366,9.35,
-1.15,-0.39,3367,9.352777777777778,
-1.145,-0.375,3368,9.355555555555556,
-1.15,-0.39,3369,9.358333333333333,
-1.16,-0.395,3370,9.36111111111111,
-1.165,-0.415,3371,9.363888888888889,
-1.18,-0.425,3372,9.366666666666667,
-1.18,-0.435,3373,9.369444444444444,
-1.185,-0.445,3374,9.372222222222222,
-1.2,-0.44,3375,9.375,
-1.205,-0.44,3376,9.377777777777778,
-1.205,-0.43,3377,9.380555555555556,
-1.195,-0.43,3378,9.383333333333333,
-1.205,-0.415,3379,9.386111111111111,
-1.19,-0.415,3380,9.38888888888889,
-1.19,-0.43,3381,9.391666666666667,
-1.2,-0.445,3382,9.394444444444444,
